E [keV],f1 [e atom⁻¹],f2 [e atom⁻¹],μ/ρ [cm² g⁻¹],σ/ρ [cm² g⁻¹],μ/ρ total [cm² g⁻¹],μ/ρ_K [cm² g⁻¹],λ [nm]
2.0004844E+00,5.67957E+01,1.1547E+01,1.1723E+03,1.1532E+01,1.1838E+03,0.000E-01,6.198E-01
2.0104868E+00,5.66916E+01,1.1482E+01,1.1599E+03,1.1529E+01,1.1714E+03,0.000E-01,6.167E-01
2.0205393E+00,5.65837E+01,1.1417E+01,1.1476E+03,1.1526E+01,1.1591E+03,0.000E-01,6.136E-01
2.0306420E+00,5.64717E+01,1.1353E+01,1.1355E+03,1.1523E+01,1.1470E+03,0.000E-01,6.106E-01
2.0407952E+00,5.63556E+01,1.1290E+01,1.1235E+03,1.1520E+01,1.1350E+03,0.000E-01,6.075E-01
2.0509992E+00,5.62350E+01,1.1227E+01,1.1117E+03,1.1516E+01,1.1232E+03,0.000E-01,6.045E-01
2.0612542E+00,5.61098E+01,1.1164E+01,1.0999E+03,1.1513E+01,1.1115E+03,0.000E-01,6.015E-01
2.0715604E+00,5.59797E+01,1.1102E+01,1.0884E+03,1.1509E+01,1.0999E+03,0.000E-01,5.985E-01
2.0819182E+00,5.58445E+01,1.1040E+01,1.0769E+03,1.1505E+01,1.0884E+03,0.000E-01,5.955E-01
2.0923278E+00,5.57040E+01,1.0978E+01,1.0656E+03,1.1500E+01,1.0771E+03,0.000E-01,5.926E-01
2.1027895E+00,5.55577E+01,1.0917E+01,1.0544E+03,1.1496E+01,1.0659E+03,0.000E-01,5.896E-01
2.1133034E+00,5.54054E+01,1.0857E+01,1.0434E+03,1.1491E+01,1.0548E+03,0.000E-01,5.867E-01
2.1238699E+00,5.52467E+01,1.0797E+01,1.0324E+03,1.1487E+01,1.0439E+03,0.000E-01,5.838E-01
2.1344893E+00,5.50813E+01,1.0737E+01,1.0216E+03,1.1482E+01,1.0331E+03,0.000E-01,5.809E-01
2.1451617E+00,5.49086E+01,1.0678E+01,1.0109E+03,1.1477E+01,1.0224E+03,0.000E-01,5.780E-01
2.1558875E+00,5.47283E+01,1.0619E+01,1.0003E+03,1.1471E+01,1.0118E+03,0.000E-01,5.751E-01
2.1666670E+00,5.45397E+01,1.0561E+01,9.8989E+02,1.1466E+01,1.0014E+03,0.000E-01,5.722E-01
2.1775003E+00,5.43424E+01,1.0503E+01,9.7956E+02,1.1460E+01,9.9102E+02,0.000E-01,5.694E-01
2.1883878E+00,5.41355E+01,1.0445E+01,9.6934E+02,1.1454E+01,9.8079E+02,0.000E-01,5.666E-01
2.1993297E+00,5.39185E+01,1.0388E+01,9.5924E+02,1.1448E+01,9.7068E+02,0.000E-01,5.637E-01
2.2103264E+00,5.36905E+01,1.0331E+01,9.4925E+02,1.1442E+01,9.6069E+02,0.000E-01,5.609E-01
2.2213780E+00,5.34505E+01,1.0275E+01,9.3937E+02,1.1436E+01,9.5081E+02,0.000E-01,5.581E-01
2.2324849E+00,5.31975E+01,1.0219E+01,9.2960E+02,1.1429E+01,9.4103E+02,0.000E-01,5.554E-01
2.2436473E+00,5.29304E+01,1.0163E+01,9.1995E+02,1.1423E+01,9.3137E+02,0.000E-01,5.526E-01
2.2548656E+00,5.26477E+01,1.0108E+01,9.1040E+02,1.1416E+01,9.2181E+02,0.000E-01,5.499E-01
2.2661399E+00,5.23478E+01,1.0053E+01,9.0095E+02,1.1409E+01,9.1236E+02,0.000E-01,5.471E-01
2.2774706E+00,5.20290E+01,9.9987E+00,8.9162E+02,1.1401E+01,9.0302E+02,0.000E-01,5.444E-01
2.2888579E+00,5.16891E+01,9.9446E+00,8.8238E+02,1.1394E+01,8.9378E+02,0.000E-01,5.417E-01
2.3003022E+00,5.13286E+01,9.8909E+00,8.7325E+02,1.1386E+01,8.8464E+02,0.000E-01,5.390E-01
2.3118037E+00,5.09384E+01,9.8376E+00,8.6423E+02,1.1379E+01,8.7560E+02,0.000E-01,5.363E-01
2.3233628E+00,5.05178E+01,9.7847E+00,8.5530E+02,1.1371E+01,8.6667E+02,0.000E-01,5.336E-01
2.3349796E+00,5.00624E+01,9.7321E+00,8.4647E+02,1.1363E+01,8.5783E+02,0.000E-01,5.310E-01
2.3466545E+00,4.95667E+01,9.6799E+00,8.3774E+02,1.1355E+01,8.4910E+02,0.000E-01,5.283E-01
2.3583878E+00,4.90235E+01,9.6280E+00,8.2911E+02,1.1346E+01,8.4046E+02,0.000E-01,5.257E-01
2.3701797E+00,4.84238E+01,9.5765E+00,8.2057E+02,1.1338E+01,8.3191E+02,0.000E-01,5.231E-01
2.3820306E+00,4.77555E+01,9.5254E+00,8.1213E+02,1.1329E+01,8.2346E+02,0.000E-01,5.205E-01
2.3939407E+00,4.70021E+01,9.4746E+00,8.0378E+02,1.1320E+01,8.1510E+02,0.000E-01,5.179E-01
2.4059104E+00,4.61403E+01,9.4242E+00,7.9553E+02,1.1311E+01,8.0684E+02,0.000E-01,5.153E-01
2.4179400E+00,4.51349E+01,9.3741E+00,7.8736E+02,1.1301E+01,7.9866E+02,0.000E-01,5.128E-01
2.4300297E+00,4.39297E+01,9.3244E+00,7.7929E+02,1.1292E+01,7.9058E+02,0.000E-01,5.102E-01
2.4421798E+00,4.24256E+01,9.2750E+00,7.7130E+02,1.1282E+01,7.8259E+02,0.000E-01,5.077E-01
2.4543907E+00,4.04199E+01,9.2260E+00,7.6341E+02,1.1273E+01,7.7468E+02,0.000E-01,5.052E-01
2.4666627E+00,3.73738E+01,9.1772E+00,7.5560E+02,1.1263E+01,7.6686E+02,0.000E-01,5.026E-01
2.4789960E+00,3.04980E+01,9.1289E+00,7.4788E+02,1.1253E+01,7.5913E+02,0.000E-01,5.001E-01
2.4833243E+00,1.96236E+01,9.1120E+00,7.4520E+02,1.1249E+01,7.5644E+02,0.000E-01,4.993E-01
2.4846756E+00,1.93319E+01,2.6093E+01,2.1328E+03,1.1248E+01,2.1440E+03,0.000E-01,4.990E-01
2.4913910E+00,3.21831E+01,2.5990E+01,2.1186E+03,1.1243E+01,2.1298E+03,0.000E-01,4.977E-01
2.5038479E+00,3.72476E+01,2.5800E+01,2.0926E+03,1.1232E+01,2.1039E+03,0.000E-01,4.952E-01
2.5163672E+00,3.94971E+01,2.5611E+01,2.0670E+03,1.1222E+01,2.0782E+03,0.000E-01,4.927E-01
2.5289490E+00,4.07389E+01,2.5424E+01,2.0417E+03,1.1211E+01,2.0529E+03,0.000E-01,4.903E-01
2.5415938E+00,4.13497E+01,2.5238E+01,2.0167E+03,1.1200E+01,2.0279E+03,0.000E-01,4.878E-01
2.5543017E+00,4.13776E+01,2.5054E+01,1.9920E+03,1.1189E+01,2.0032E+03,0.000E-01,4.854E-01
2.5670732E+00,4.05726E+01,2.4872E+01,1.9677E+03,1.1178E+01,1.9789E+03,0.000E-01,4.830E-01
2.5799086E+00,3.73004E+01,2.4690E+01,1.9436E+03,1.1166E+01,1.9548E+03,0.000E-01,4.806E-01
2.5848604E+00,3.03317E+01,2.4620E+01,1.9344E+03,1.1162E+01,1.9456E+03,0.000E-01,4.797E-01
2.5863394E+00,3.02515E+01,3.5872E+01,2.8168E+03,1.1161E+01,2.8280E+03,0.000E-01,4.794E-01
2.5928082E+00,3.88634E+01,3.5735E+01,2.7991E+03,1.1155E+01,2.8103E+03,0.000E-01,4.782E-01
2.6057722E+00,4.33327E+01,3.5462E+01,2.7638E+03,1.1143E+01,2.7750E+03,0.000E-01,4.758E-01
2.6188011E+00,4.58091E+01,3.5190E+01,2.7290E+03,1.1131E+01,2.7402E+03,0.000E-01,4.734E-01
2.6318951E+00,4.76229E+01,3.4921E+01,2.6947E+03,1.1119E+01,2.7058E+03,0.000E-01,4.711E-01
2.6450545E+00,4.90858E+01,3.4654E+01,2.6607E+03,1.1107E+01,2.6718E+03,0.000E-01,4.687E-01
2.6582798E+00,5.03245E+01,3.4389E+01,2.6273E+03,1.1095E+01,2.6383E+03,0.000E-01,4.664E-01
2.6715712E+00,5.14043E+01,3.4126E+01,2.5942E+03,1.1082E+01,2.6053E+03,0.000E-01,4.641E-01
2.6849291E+00,5.23620E+01,3.3865E+01,2.5616E+03,1.1070E+01,2.5726E+03,0.000E-01,4.618E-01
2.6983537E+00,5.32260E+01,3.3605E+01,2.5292E+03,1.1057E+01,2.5403E+03,0.000E-01,4.595E-01
2.7118455E+00,5.40118E+01,3.3346E+01,2.4973E+03,1.1044E+01,2.5084E+03,0.000E-01,4.572E-01
2.7254047E+00,5.47318E+01,3.3090E+01,2.4658E+03,1.1031E+01,2.4769E+03,0.000E-01,4.549E-01
2.7390317E+00,5.53953E+01,3.2837E+01,2.4347E+03,1.1018E+01,2.4457E+03,0.000E-01,4.527E-01
2.7527269E+00,5.60094E+01,3.2585E+01,2.4040E+03,1.1004E+01,2.4150E+03,0.000E-01,4.504E-01
2.7664905E+00,5.65799E+01,3.2335E+01,2.3738E+03,1.0991E+01,2.3847E+03,0.000E-01,4.482E-01
2.7803230E+00,5.71111E+01,3.2088E+01,2.3439E+03,1.0977E+01,2.3548E+03,0.000E-01,4.459E-01
2.7942246E+00,5.76066E+01,3.1842E+01,2.3143E+03,1.0964E+01,2.3253E+03,0.000E-01,4.437E-01
2.8081957E+00,5.80693E+01,3.1598E+01,2.2852E+03,1.0950E+01,2.2962E+03,0.000E-01,4.415E-01
2.8222367E+00,5.85016E+01,3.1357E+01,2.2564E+03,1.0935E+01,2.2674E+03,0.000E-01,4.393E-01
2.8363479E+00,5.89052E+01,3.1117E+01,2.2281E+03,1.0921E+01,2.2390E+03,0.000E-01,4.371E-01
2.8505296E+00,5.92816E+01,3.0879E+01,2.2000E+03,1.0907E+01,2.2109E+03,0.000E-01,4.350E-01
2.8647823E+00,5.96318E+01,3.0644E+01,2.1724E+03,1.0892E+01,2.1833E+03,0.000E-01,4.328E-01
2.8791062E+00,5.99563E+01,3.0410E+01,2.1451E+03,1.0878E+01,2.1560E+03,0.000E-01,4.306E-01
2.8935017E+00,6.02554E+01,3.0178E+01,2.1181E+03,1.0863E+01,2.1290E+03,0.000E-01,4.285E-01
2.9079692E+00,6.05288E+01,2.9948E+01,2.0915E+03,1.0848E+01,2.1024E+03,0.000E-01,4.264E-01
2.9225091E+00,6.07755E+01,2.9720E+01,2.0653E+03,1.0833E+01,2.0761E+03,0.000E-01,4.242E-01
2.9371216E+00,6.09939E+01,2.9494E+01,2.0394E+03,1.0817E+01,2.0502E+03,0.000E-01,4.221E-01
2.9518072E+00,6.11812E+01,2.9269E+01,2.0138E+03,1.0802E+01,2.0246E+03,0.000E-01,4.200E-01
2.9665662E+00,6.13329E+01,2.9047E+01,1.9885E+03,1.0787E+01,1.9993E+03,0.000E-01,4.179E-01
2.9813991E+00,6.14420E+01,2.8826E+01,1.9636E+03,1.0771E+01,1.9744E+03,0.000E-01,4.159E-01
2.9963061E+00,6.14964E+01,2.8607E+01,1.9390E+03,1.0755E+01,1.9498E+03,0.000E-01,4.138E-01
3.0112876E+00,6.14556E+01,2.8374E+01,1.9136E+03,1.0739E+01,1.9244E+03,0.000E-01,4.117E-01
3.0263440E+00,6.12783E+01,2.8137E+01,1.8882E+03,1.0723E+01,1.8989E+03,0.000E-01,4.097E-01
3.0414758E+00,6.08558E+01,2.7902E+01,1.8631E+03,1.0707E+01,1.8739E+03,0.000E-01,4.076E-01
3.0566831E+00,5.97132E+01,2.7669E+01,1.8384E+03,1.0691E+01,1.8491E+03,0.000E-01,4.056E-01
3.0632417E+00,5.81196E+01,2.7569E+01,1.8278E+03,1.0683E+01,1.8385E+03,0.000E-01,4.047E-01
3.0695584E+00,5.81766E+01,3.2297E+01,2.1369E+03,1.0677E+01,2.1475E+03,0.000E-01,4.039E-01
3.0719666E+00,5.90977E+01,3.2253E+01,2.1322E+03,1.0674E+01,2.1429E+03,0.000E-01,4.036E-01
3.0873264E+00,6.14244E+01,3.1972E+01,2.1032E+03,1.0657E+01,2.1138E+03,0.000E-01,4.016E-01
3.1027630E+00,6.25402E+01,3.1694E+01,2.0745E+03,1.0641E+01,2.0852E+03,0.000E-01,3.996E-01
3.1182768E+00,6.33354E+01,3.1418E+01,2.0463E+03,1.0624E+01,2.0569E+03,0.000E-01,3.976E-01
3.1338682E+00,6.39735E+01,3.1145E+01,2.0184E+03,1.0607E+01,2.0290E+03,0.000E-01,3.956E-01
3.1495376E+00,6.45153E+01,3.0874E+01,1.9909E+03,1.0590E+01,2.0014E+03,0.000E-01,3.937E-01
3.1652853E+00,6.49900E+01,3.0606E+01,1.9637E+03,1.0573E+01,1.9743E+03,0.000E-01,3.917E-01
3.1811117E+00,6.54139E+01,3.0340E+01,1.9370E+03,1.0555E+01,1.9475E+03,0.000E-01,3.898E-01
3.1970172E+00,6.57967E+01,3.0076E+01,1.9106E+03,1.0538E+01,1.9211E+03,0.000E-01,3.878E-01
3.2130023E+00,6.61440E+01,2.9814E+01,1.8845E+03,1.0520E+01,1.8950E+03,0.000E-01,3.859E-01
3.2290673E+00,6.64611E+01,2.9568E+01,1.8597E+03,1.0502E+01,1.8702E+03,0.000E-01,3.840E-01
3.2452127E+00,6.67587E+01,2.9324E+01,1.8352E+03,1.0484E+01,1.8457E+03,0.000E-01,3.821E-01
3.2614387E+00,6.70379E+01,2.9084E+01,1.8111E+03,1.0466E+01,1.8215E+03,0.000E-01,3.802E-01
3.2777459E+00,6.72999E+01,2.8847E+01,1.7874E+03,1.0448E+01,1.7978E+03,0.000E-01,3.783E-01
3.2941347E+00,6.75459E+01,2.8612E+01,1.7640E+03,1.0430E+01,1.7744E+03,0.000E-01,3.764E-01
3.3106053E+00,6.77769E+01,2.8381E+01,1.7410E+03,1.0412E+01,1.7514E+03,0.000E-01,3.745E-01
3.3271584E+00,6.79937E+01,2.8152E+01,1.7184E+03,1.0393E+01,1.7288E+03,0.000E-01,3.726E-01
3.3437941E+00,6.81970E+01,2.7926E+01,1.6961E+03,1.0375E+01,1.7065E+03,0.000E-01,3.708E-01
3.3605131E+00,6.83870E+01,2.7703E+01,1.6742E+03,1.0356E+01,1.6846E+03,0.000E-01,3.689E-01
3.3773157E+00,6.85632E+01,2.7479E+01,1.6524E+03,1.0337E+01,1.6628E+03,0.000E-01,3.671E-01
3.3942023E+00,6.87250E+01,2.7258E+01,1.6310E+03,1.0318E+01,1.6413E+03,0.000E-01,3.653E-01
3.4111733E+00,6.88717E+01,2.7039E+01,1.6098E+03,1.0299E+01,1.6201E+03,0.000E-01,3.635E-01
3.4282291E+00,6.90023E+01,2.6823E+01,1.5890E+03,1.0280E+01,1.5993E+03,0.000E-01,3.617E-01
3.4453703E+00,6.91148E+01,2.6609E+01,1.5685E+03,1.0261E+01,1.5787E+03,0.000E-01,3.599E-01
3.4625971E+00,6.92058E+01,2.6397E+01,1.5483E+03,1.0241E+01,1.5585E+03,0.000E-01,3.581E-01
3.4799101E+00,6.92696E+01,2.6188E+01,1.5284E+03,1.0222E+01,1.5386E+03,0.000E-01,3.563E-01
3.4973097E+00,6.92952E+01,2.5981E+01,1.5088E+03,1.0202E+01,1.5190E+03,0.000E-01,3.545E-01
3.5147962E+00,6.92587E+01,2.5777E+01,1.4894E+03,1.0182E+01,1.4996E+03,0.000E-01,3.527E-01
3.5323702E+00,6.90914E+01,2.5574E+01,1.4704E+03,1.0162E+01,1.4805E+03,0.000E-01,3.510E-01
3.5490108E+00,6.84316E+01,2.5386E+01,1.4527E+03,1.0144E+01,1.4628E+03,0.000E-01,3.493E-01
3.5500321E+00,6.83166E+01,2.5374E+01,1.4516E+03,1.0142E+01,1.4617E+03,0.000E-01,3.492E-01
3.5593891E+00,6.85065E+01,2.7055E+01,1.5437E+03,1.0132E+01,1.5538E+03,0.000E-01,3.483E-01
3.5677822E+00,6.91322E+01,2.6951E+01,1.5341E+03,1.0122E+01,1.5443E+03,0.000E-01,3.475E-01
3.5856211E+00,6.97623E+01,2.6733E+01,1.5142E+03,1.0102E+01,1.5243E+03,0.000E-01,3.458E-01
3.6035492E+00,7.01606E+01,2.6517E+01,1.4945E+03,1.0082E+01,1.5045E+03,0.000E-01,3.441E-01
3.6215670E+00,7.04697E+01,2.6304E+01,1.4750E+03,1.0062E+01,1.4851E+03,0.000E-01,3.423E-01
3.6396748E+00,7.07282E+01,2.6092E+01,1.4559E+03,1.0041E+01,1.4660E+03,0.000E-01,3.406E-01
3.6578732E+00,7.09523E+01,2.5883E+01,1.4371E+03,1.0021E+01,1.4471E+03,0.000E-01,3.390E-01
3.6761626E+00,7.11499E+01,2.5676E+01,1.4185E+03,9.9999E+00,1.4285E+03,0.000E-01,3.373E-01
3.6945434E+00,7.13251E+01,2.5471E+01,1.4001E+03,9.9791E+00,1.4101E+03,0.000E-01,3.356E-01
3.7130161E+00,7.14799E+01,2.5267E+01,1.3821E+03,9.9582E+00,1.3920E+03,0.000E-01,3.339E-01
3.7315812E+00,7.16138E+01,2.5068E+01,1.3643E+03,9.9372E+00,1.3742E+03,0.000E-01,3.323E-01
3.7502391E+00,7.17294E+01,2.4878E+01,1.3473E+03,9.9162E+00,1.3572E+03,0.000E-01,3.306E-01
3.7689903E+00,7.18265E+01,2.4691E+01,1.3305E+03,9.8950E+00,1.3404E+03,0.000E-01,3.290E-01
3.7878352E+00,7.18988E+01,2.4506E+01,1.3139E+03,9.8737E+00,1.3238E+03,0.000E-01,3.273E-01
3.8067744E+00,7.19330E+01,2.4324E+01,1.2977E+03,9.8524E+00,1.3075E+03,0.000E-01,3.257E-01
3.8258083E+00,7.18915E+01,2.4143E+01,1.2816E+03,9.8309E+00,1.2915E+03,0.000E-01,3.241E-01
3.8424209E+00,7.16468E+01,2.3988E+01,1.2679E+03,9.8122E+00,1.2777E+03,0.000E-01,3.227E-01
3.8449373E+00,7.15435E+01,2.3965E+01,1.2658E+03,9.8094E+00,1.2756E+03,0.000E-01,3.225E-01
3.8589789E+00,7.17617E+01,2.4895E+01,1.3102E+03,9.7936E+00,1.3199E+03,0.000E-01,3.213E-01
3.8641620E+00,7.19632E+01,2.4847E+01,1.3059E+03,9.7877E+00,1.3157E+03,0.000E-01,3.209E-01
3.8834828E+00,7.23999E+01,2.4672E+01,1.2902E+03,9.7660E+00,1.3000E+03,0.000E-01,3.193E-01
3.9029002E+00,7.26895E+01,2.4498E+01,1.2748E+03,9.7442E+00,1.2845E+03,0.000E-01,3.177E-01
3.9224147E+00,7.29259E+01,2.4327E+01,1.2596E+03,9.7223E+00,1.2693E+03,0.000E-01,3.161E-01
3.9420268E+00,7.31335E+01,2.4157E+01,1.2445E+03,9.7003E+00,1.2542E+03,0.000E-01,3.145E-01
3.9617369E+00,7.33228E+01,2.3989E+01,1.2297E+03,9.6782E+00,1.2394E+03,0.000E-01,3.130E-01
3.9815456E+00,7.34991E+01,2.3822E+01,1.2151E+03,9.6560E+00,1.2248E+03,0.000E-01,3.114E-01
4.0014533E+00,7.36649E+01,2.3653E+01,1.2005E+03,9.6338E+00,1.2101E+03,0.000E-01,3.098E-01
4.0214606E+00,7.38213E+01,2.3484E+01,1.1860E+03,9.6114E+00,1.1956E+03,0.000E-01,3.083E-01
4.0415679E+00,7.39697E+01,2.3317E+01,1.1717E+03,9.5890E+00,1.1813E+03,0.000E-01,3.068E-01
4.0617757E+00,7.41114E+01,2.3151E+01,1.1576E+03,9.5665E+00,1.1671E+03,0.000E-01,3.052E-01
4.0820846E+00,7.42469E+01,2.2986E+01,1.1436E+03,9.5439E+00,1.1531E+03,0.000E-01,3.037E-01
4.1024950E+00,7.43771E+01,2.2823E+01,1.1298E+03,9.5212E+00,1.1394E+03,0.000E-01,3.022E-01
4.1230075E+00,7.45025E+01,2.2661E+01,1.1163E+03,9.4985E+00,1.1258E+03,0.000E-01,3.007E-01
4.1436226E+00,7.46236E+01,2.2501E+01,1.1028E+03,9.4756E+00,1.1123E+03,0.000E-01,2.992E-01
4.1643407E+00,7.47406E+01,2.2342E+01,1.0896E+03,9.4527E+00,1.0991E+03,0.000E-01,2.977E-01
4.1851624E+00,7.48539E+01,2.2185E+01,1.0766E+03,9.4298E+00,1.0860E+03,0.000E-01,2.962E-01
4.2060882E+00,7.49638E+01,2.2029E+01,1.0637E+03,9.4067E+00,1.0731E+03,0.000E-01,2.948E-01
4.2271186E+00,7.50705E+01,2.1874E+01,1.0509E+03,9.3836E+00,1.0603E+03,0.000E-01,2.933E-01
4.2482542E+00,7.51742E+01,2.1721E+01,1.0384E+03,9.3604E+00,1.0477E+03,0.000E-01,2.918E-01
4.2694955E+00,7.52751E+01,2.1569E+01,1.0260E+03,9.3371E+00,1.0353E+03,0.000E-01,2.904E-01
4.2908430E+00,7.53733E+01,2.1418E+01,1.0137E+03,9.3137E+00,1.0231E+03,0.000E-01,2.890E-01
4.3122972E+00,7.54690E+01,2.1268E+01,1.0017E+03,9.2903E+00,1.0109E+03,0.000E-01,2.875E-01
4.3338587E+00,7.55623E+01,2.1120E+01,9.8972E+02,9.2668E+00,9.9898E+02,0.000E-01,2.861E-01
4.3555280E+00,7.56533E+01,2.0973E+01,9.7793E+02,9.2432E+00,9.8718E+02,0.000E-01,2.847E-01
4.3773056E+00,7.57422E+01,2.0827E+01,9.6630E+02,9.2196E+00,9.7552E+02,0.000E-01,2.832E-01
4.3991921E+00,7.58290E+01,2.0682E+01,9.5481E+02,9.1959E+00,9.6401E+02,0.000E-01,2.818E-01
4.4211881E+00,7.59139E+01,2.0539E+01,9.4346E+02,9.1721E+00,9.5264E+02,0.000E-01,2.804E-01
4.4432940E+00,7.59970E+01,2.0396E+01,9.3226E+02,9.1483E+00,9.4141E+02,0.000E-01,2.790E-01
4.4655105E+00,7.60783E+01,2.0255E+01,9.2119E+02,9.1244E+00,9.3032E+02,0.000E-01,2.776E-01
4.4878381E+00,7.61579E+01,2.0115E+01,9.1027E+02,9.1004E+00,9.1937E+02,0.000E-01,2.763E-01
4.5102772E+00,7.62360E+01,1.9976E+01,8.9947E+02,9.0764E+00,9.0855E+02,0.000E-01,2.749E-01
4.5328286E+00,7.63126E+01,1.9838E+01,8.8881E+02,9.0523E+00,8.9786E+02,0.000E-01,2.735E-01
4.5554928E+00,7.63879E+01,1.9701E+01,8.7828E+02,9.0282E+00,8.8731E+02,0.000E-01,2.722E-01
4.5782702E+00,7.64619E+01,1.9565E+01,8.6788E+02,9.0040E+00,8.7689E+02,0.000E-01,2.708E-01
4.6011616E+00,7.65348E+01,1.9430E+01,8.5761E+02,8.9797E+00,8.6659E+02,0.000E-01,2.695E-01
4.6241674E+00,7.66068E+01,1.9295E+01,8.4743E+02,8.9554E+00,8.5639E+02,0.000E-01,2.681E-01
4.6472882E+00,7.66770E+01,1.9159E+01,8.3725E+02,8.9310E+00,8.4618E+02,0.000E-01,2.668E-01
4.6705247E+00,7.67453E+01,1.9023E+01,8.2719E+02,8.9066E+00,8.3610E+02,0.000E-01,2.655E-01
4.6938773E+00,7.68119E+01,1.8889E+01,8.1725E+02,8.8821E+00,8.2613E+02,0.000E-01,2.641E-01
4.7173467E+00,7.68768E+01,1.8755E+01,8.0743E+02,8.8576E+00,8.1629E+02,0.000E-01,2.628E-01
4.7409334E+00,7.69402E+01,1.8622E+01,7.9773E+02,8.8330E+00,8.0657E+02,0.000E-01,2.615E-01
4.7646381E+00,7.70022E+01,1.8491E+01,7.8815E+02,8.8083E+00,7.9696E+02,0.000E-01,2.602E-01
4.7884613E+00,7.70627E+01,1.8360E+01,7.7868E+02,8.7836E+00,7.8746E+02,0.000E-01,2.589E-01
4.8124036E+00,7.71220E+01,1.8230E+01,7.6933E+02,8.7588E+00,7.7809E+02,0.000E-01,2.576E-01
4.8364656E+00,7.71799E+01,1.8101E+01,7.6009E+02,8.7340E+00,7.6882E+02,0.000E-01,2.564E-01
4.8606479E+00,7.72367E+01,1.7973E+01,7.5096E+02,8.7092E+00,7.5966E+02,0.000E-01,2.551E-01
4.8849512E+00,7.72924E+01,1.7846E+01,7.4194E+02,8.6843E+00,7.5062E+02,0.000E-01,2.538E-01
4.9093759E+00,7.73469E+01,1.7720E+01,7.3303E+02,8.6594E+00,7.4168E+02,0.000E-01,2.525E-01
4.9339228E+00,7.74004E+01,1.7594E+01,7.2422E+02,8.6344E+00,7.3286E+02,0.000E-01,2.513E-01
4.9585924E+00,7.74530E+01,1.7470E+01,7.1553E+02,8.6093E+00,7.2414E+02,0.000E-01,2.500E-01
4.9833854E+00,7.76836E+01,1.7342E+01,7.0676E+02,8.5842E+00,7.1535E+02,0.000E-01,2.488E-01
5.0083023E+00,7.77342E+01,1.7213E+01,6.9800E+02,8.5591E+00,7.0656E+02,0.000E-01,2.476E-01
5.0333438E+00,7.77830E+01,1.7084E+01,6.8933E+02,8.5340E+00,6.9786E+02,0.000E-01,2.463E-01
5.0585105E+00,7.78302E+01,1.6956E+01,6.8076E+02,8.5087E+00,6.8927E+02,0.000E-01,2.451E-01
5.0838031E+00,7.78758E+01,1.6829E+01,6.7231E+02,8.4835E+00,6.8079E+02,0.000E-01,2.439E-01
5.1092221E+00,7.79200E+01,1.6704E+01,6.6396E+02,8.4582E+00,6.7242E+02,0.000E-01,2.427E-01
5.1347682E+00,7.79627E+01,1.6579E+01,6.5572E+02,8.4329E+00,6.6416E+02,0.000E-01,2.415E-01
5.1604421E+00,7.80042E+01,1.6455E+01,6.4759E+02,8.4075E+00,6.5600E+02,0.000E-01,2.403E-01
5.1862443E+00,7.81673E+01,1.6330E+01,6.3946E+02,8.3821E+00,6.4784E+02,0.000E-01,2.391E-01
5.2121755E+00,7.82062E+01,1.6204E+01,6.3137E+02,8.3567E+00,6.3973E+02,0.000E-01,2.379E-01
5.2382364E+00,7.82434E+01,1.6079E+01,6.2339E+02,8.3312E+00,6.3172E+02,0.000E-01,2.367E-01
5.2644276E+00,7.82792E+01,1.5955E+01,6.1551E+02,8.3057E+00,6.2382E+02,0.000E-01,2.355E-01
5.2907497E+00,7.83134E+01,1.5832E+01,6.0774E+02,8.2802E+00,6.1602E+02,0.000E-01,2.343E-01
5.3172034E+00,7.83463E+01,1.5711E+01,6.0006E+02,8.2546E+00,6.0832E+02,0.000E-01,2.332E-01
5.3437895E+00,7.83778E+01,1.5590E+01,5.9249E+02,8.2290E+00,6.0072E+02,0.000E-01,2.320E-01
5.3705084E+00,7.84081E+01,1.5470E+01,5.8502E+02,8.2034E+00,5.9322E+02,0.000E-01,2.309E-01
5.3973609E+00,7.84371E+01,1.5352E+01,5.7764E+02,8.1777E+00,5.8582E+02,0.000E-01,2.297E-01
5.4243477E+00,7.84650E+01,1.5234E+01,5.7036E+02,8.1520E+00,5.7852E+02,0.000E-01,2.286E-01
5.4514695E+00,7.84918E+01,1.5117E+01,5.6318E+02,8.1263E+00,5.7131E+02,0.000E-01,2.274E-01
5.4787268E+00,7.85174E+01,1.5002E+01,5.5609E+02,8.1005E+00,5.6419E+02,0.000E-01,2.263E-01
5.5061205E+00,7.85420E+01,1.4887E+01,5.4910E+02,8.0748E+00,5.5717E+02,0.000E-01,2.252E-01
5.5336511E+00,7.85656E+01,1.4773E+01,5.4219E+02,8.0490E+00,5.5024E+02,0.000E-01,2.241E-01
5.5613193E+00,7.85882E+01,1.4661E+01,5.3538E+02,8.0231E+00,5.4340E+02,0.000E-01,2.229E-01
5.5891259E+00,7.86098E+01,1.4549E+01,5.2866E+02,7.9973E+00,5.3666E+02,0.000E-01,2.218E-01
5.6170716E+00,7.86305E+01,1.4438E+01,5.2202E+02,7.9714E+00,5.3000E+02,0.000E-01,2.207E-01
5.6451569E+00,7.86504E+01,1.4328E+01,5.1548E+02,7.9455E+00,5.2342E+02,0.000E-01,2.196E-01
5.6733827E+00,7.86693E+01,1.4220E+01,5.0902E+02,7.9196E+00,5.1694E+02,0.000E-01,2.185E-01
5.7017496E+00,7.86874E+01,1.4112E+01,5.0264E+02,7.8937E+00,5.1054E+02,0.000E-01,2.174E-01
