E [keV],f1 [e atom⁻¹],f2 [e atom⁻¹],μ/ρ [cm² g⁻¹],σ/ρ [cm² g⁻¹],μ/ρ total [cm² g⁻¹],μ/ρ_K [cm² g⁻¹],λ [nm]
2.0035635E+00,5.36983E+01,2.2735E+01,3.1423E+03,8.9798E+00,3.1512E+03,0.000E-01,6.188E-01
2.0135813E+00,5.38186E+01,2.2597E+01,3.1076E+03,8.9752E+00,3.1166E+03,0.000E-01,6.157E-01
2.0236492E+00,5.39365E+01,2.2459E+01,3.0733E+03,8.9705E+00,3.0823E+03,0.000E-01,6.127E-01
2.0337675E+00,5.40521E+01,2.2323E+01,3.0394E+03,8.9657E+00,3.0484E+03,0.000E-01,6.096E-01
2.0439363E+00,5.41657E+01,2.2187E+01,3.0059E+03,8.9607E+00,3.0149E+03,0.000E-01,6.066E-01
2.0541560E+00,5.42773E+01,2.2052E+01,2.9728E+03,8.9555E+00,2.9818E+03,0.000E-01,6.036E-01
2.0644268E+00,5.43870E+01,2.1918E+01,2.9400E+03,8.9503E+00,2.9490E+03,0.000E-01,6.006E-01
2.0747489E+00,5.44951E+01,2.1785E+01,2.9077E+03,8.9449E+00,2.9166E+03,0.000E-01,5.976E-01
2.0851227E+00,5.46017E+01,2.1653E+01,2.8756E+03,8.9393E+00,2.8846E+03,0.000E-01,5.946E-01
2.0955483E+00,5.47070E+01,2.1521E+01,2.8440E+03,8.9336E+00,2.8529E+03,0.000E-01,5.917E-01
2.1060260E+00,5.48106E+01,2.1388E+01,2.8123E+03,8.9278E+00,2.8212E+03,0.000E-01,5.887E-01
2.1165562E+00,5.49118E+01,2.1254E+01,2.7808E+03,8.9219E+00,2.7897E+03,0.000E-01,5.858E-01
2.1271389E+00,5.50110E+01,2.1122E+01,2.7497E+03,8.9158E+00,2.7586E+03,0.000E-01,5.829E-01
2.1377746E+00,5.51081E+01,2.0990E+01,2.7189E+03,8.9095E+00,2.7278E+03,0.000E-01,5.800E-01
2.1484635E+00,5.52033E+01,2.0858E+01,2.6884E+03,8.9032E+00,2.6973E+03,0.000E-01,5.771E-01
2.1592058E+00,5.52968E+01,2.0728E+01,2.6583E+03,8.8967E+00,2.6672E+03,0.000E-01,5.742E-01
2.1700018E+00,5.53885E+01,2.0598E+01,2.6285E+03,8.8901E+00,2.6374E+03,0.000E-01,5.714E-01
2.1808519E+00,5.54787E+01,2.0469E+01,2.5991E+03,8.8833E+00,2.6080E+03,0.000E-01,5.685E-01
2.1917561E+00,5.55672E+01,2.0341E+01,2.5699E+03,8.8764E+00,2.5788E+03,0.000E-01,5.657E-01
2.2027149E+00,5.56543E+01,2.0213E+01,2.5411E+03,8.8694E+00,2.5500E+03,0.000E-01,5.629E-01
2.2137285E+00,5.57400E+01,2.0086E+01,2.5126E+03,8.8622E+00,2.5215E+03,0.000E-01,5.601E-01
2.2247971E+00,5.58243E+01,1.9960E+01,2.4844E+03,8.8549E+00,2.4933E+03,0.000E-01,5.573E-01
2.2359211E+00,5.59072E+01,1.9835E+01,2.4566E+03,8.8475E+00,2.4654E+03,0.000E-01,5.545E-01
2.2471007E+00,5.59890E+01,1.9711E+01,2.4290E+03,8.8400E+00,2.4378E+03,0.000E-01,5.518E-01
2.2583362E+00,5.60695E+01,1.9587E+01,2.4017E+03,8.8323E+00,2.4106E+03,0.000E-01,5.490E-01
2.2696279E+00,5.63690E+01,1.9460E+01,2.3743E+03,8.8245E+00,2.3831E+03,0.000E-01,5.463E-01
2.2809760E+00,5.64470E+01,1.9332E+01,2.3470E+03,8.8166E+00,2.3558E+03,0.000E-01,5.436E-01
2.2923809E+00,5.65233E+01,1.9205E+01,2.3199E+03,8.8085E+00,2.3288E+03,0.000E-01,5.409E-01
2.3038428E+00,5.65981E+01,1.9079E+01,2.2932E+03,8.8003E+00,2.3020E+03,0.000E-01,5.382E-01
2.3153620E+00,5.66713E+01,1.8953E+01,2.2668E+03,8.7920E+00,2.2756E+03,0.000E-01,5.355E-01
2.3269388E+00,5.68928E+01,1.8827E+01,2.2405E+03,8.7835E+00,2.2493E+03,0.000E-01,5.328E-01
2.3385735E+00,5.69633E+01,1.8700E+01,2.2143E+03,8.7749E+00,2.2231E+03,0.000E-01,5.302E-01
2.3502664E+00,5.70319E+01,1.8573E+01,2.1883E+03,8.7662E+00,2.1970E+03,0.000E-01,5.275E-01
2.3620177E+00,5.70988E+01,1.8446E+01,2.1626E+03,8.7574E+00,2.1713E+03,0.000E-01,5.249E-01
2.3738278E+00,5.71639E+01,1.8320E+01,2.1371E+03,8.7484E+00,2.1459E+03,0.000E-01,5.223E-01
2.3856970E+00,5.72274E+01,1.8196E+01,2.1120E+03,8.7394E+00,2.1208E+03,0.000E-01,5.197E-01
2.3976254E+00,5.72893E+01,1.8072E+01,2.0872E+03,8.7302E+00,2.0959E+03,0.000E-01,5.171E-01
2.4096136E+00,5.73497E+01,1.7948E+01,2.0627E+03,8.7208E+00,2.0714E+03,0.000E-01,5.145E-01
2.4216616E+00,5.74087E+01,1.7826E+01,2.0384E+03,8.7114E+00,2.0471E+03,0.000E-01,5.120E-01
2.4337699E+00,5.74662E+01,1.7705E+01,2.0145E+03,8.7018E+00,2.0232E+03,0.000E-01,5.094E-01
2.4459388E+00,5.75225E+01,1.7584E+01,1.9908E+03,8.6921E+00,1.9995E+03,0.000E-01,5.069E-01
2.4581685E+00,5.75774E+01,1.7464E+01,1.9674E+03,8.6823E+00,1.9761E+03,0.000E-01,5.044E-01
2.4704593E+00,5.76311E+01,1.7345E+01,1.9443E+03,8.6724E+00,1.9529E+03,0.000E-01,5.019E-01
2.4828116E+00,5.76835E+01,1.7227E+01,1.9214E+03,8.6623E+00,1.9301E+03,0.000E-01,4.994E-01
2.4952257E+00,5.77348E+01,1.7110E+01,1.8989E+03,8.6521E+00,1.9075E+03,0.000E-01,4.969E-01
2.5077018E+00,5.77851E+01,1.6992E+01,1.8764E+03,8.6418E+00,1.8850E+03,0.000E-01,4.944E-01
2.5202403E+00,5.78341E+01,1.6874E+01,1.8540E+03,8.6314E+00,1.8627E+03,0.000E-01,4.920E-01
2.5328415E+00,5.78820E+01,1.6756E+01,1.8320E+03,8.6209E+00,1.8406E+03,0.000E-01,4.895E-01
2.5455057E+00,5.79287E+01,1.6639E+01,1.8102E+03,8.6102E+00,1.8188E+03,0.000E-01,4.871E-01
2.5582333E+00,5.79743E+01,1.6524E+01,1.7886E+03,8.5994E+00,1.7972E+03,0.000E-01,4.846E-01
2.5710244E+00,5.80188E+01,1.6409E+01,1.7673E+03,8.5886E+00,1.7759E+03,0.000E-01,4.822E-01
2.5838796E+00,5.80623E+01,1.6295E+01,1.7463E+03,8.5775E+00,1.7549E+03,0.000E-01,4.798E-01
2.5967990E+00,5.81048E+01,1.6182E+01,1.7256E+03,8.5664E+00,1.7341E+03,0.000E-01,4.775E-01
2.6097829E+00,5.81463E+01,1.6069E+01,1.7051E+03,8.5552E+00,1.7136E+03,0.000E-01,4.751E-01
2.6228319E+00,5.81869E+01,1.5958E+01,1.6848E+03,8.5438E+00,1.6934E+03,0.000E-01,4.727E-01
2.6359460E+00,5.82266E+01,1.5847E+01,1.6648E+03,8.5324E+00,1.6733E+03,0.000E-01,4.704E-01
2.6491257E+00,5.82654E+01,1.5737E+01,1.6451E+03,8.5208E+00,1.6536E+03,0.000E-01,4.680E-01
2.6623714E+00,5.83033E+01,1.5629E+01,1.6256E+03,8.5091E+00,1.6341E+03,0.000E-01,4.657E-01
2.6756832E+00,5.83405E+01,1.5521E+01,1.6063E+03,8.4973E+00,1.6148E+03,0.000E-01,4.634E-01
2.6890617E+00,5.83768E+01,1.5413E+01,1.5873E+03,8.4854E+00,1.5958E+03,0.000E-01,4.611E-01
2.7025070E+00,5.84125E+01,1.5307E+01,1.5685E+03,8.4734E+00,1.5770E+03,0.000E-01,4.588E-01
2.7160195E+00,5.84474E+01,1.5202E+01,1.5499E+03,8.4613E+00,1.5584E+03,0.000E-01,4.565E-01
2.7295996E+00,5.84816E+01,1.5097E+01,1.5316E+03,8.4490E+00,1.5400E+03,0.000E-01,4.542E-01
2.7432476E+00,5.85153E+01,1.4993E+01,1.5135E+03,8.4367E+00,1.5219E+03,0.000E-01,4.520E-01
2.7569638E+00,5.85483E+01,1.4890E+01,1.4956E+03,8.4242E+00,1.5041E+03,0.000E-01,4.497E-01
2.7707486E+00,5.85807E+01,1.4788E+01,1.4780E+03,8.4117E+00,1.4864E+03,0.000E-01,4.475E-01
2.7846024E+00,5.86127E+01,1.4687E+01,1.4606E+03,8.3990E+00,1.4690E+03,0.000E-01,4.452E-01
2.7985254E+00,5.86441E+01,1.4587E+01,1.4434E+03,8.3862E+00,1.4517E+03,0.000E-01,4.430E-01
2.8125180E+00,5.86752E+01,1.4487E+01,1.4264E+03,8.3733E+00,1.4347E+03,0.000E-01,4.408E-01
2.8265806E+00,5.87058E+01,1.4388E+01,1.4096E+03,8.3603E+00,1.4180E+03,0.000E-01,4.386E-01
2.8407135E+00,5.87361E+01,1.4290E+01,1.3930E+03,8.3472E+00,1.4014E+03,0.000E-01,4.365E-01
2.8549171E+00,5.87662E+01,1.4193E+01,1.3767E+03,8.3341E+00,1.3850E+03,0.000E-01,4.343E-01
2.8691917E+00,5.87960E+01,1.4097E+01,1.3605E+03,8.3208E+00,1.3688E+03,0.000E-01,4.321E-01
2.8835376E+00,5.88257E+01,1.4001E+01,1.3446E+03,8.3074E+00,1.3529E+03,0.000E-01,4.300E-01
2.8979553E+00,5.88553E+01,1.3906E+01,1.3288E+03,8.2939E+00,1.3371E+03,0.000E-01,4.278E-01
2.9124451E+00,5.88850E+01,1.3812E+01,1.3133E+03,8.2803E+00,1.3215E+03,0.000E-01,4.257E-01
2.9270073E+00,5.89148E+01,1.3719E+01,1.2979E+03,8.2665E+00,1.3062E+03,0.000E-01,4.236E-01
2.9416424E+00,5.89450E+01,1.3626E+01,1.2827E+03,8.2527E+00,1.2910E+03,0.000E-01,4.215E-01
2.9563506E+00,5.89756E+01,1.3535E+01,1.2678E+03,8.2388E+00,1.2760E+03,0.000E-01,4.194E-01
2.9711323E+00,5.91179E+01,1.3443E+01,1.2529E+03,8.2248E+00,1.2611E+03,0.000E-01,4.173E-01
2.9859880E+00,5.91515E+01,1.3351E+01,1.2381E+03,8.2108E+00,1.2463E+03,0.000E-01,4.152E-01
3.0009179E+00,5.91880E+01,1.3258E+01,1.2235E+03,8.1966E+00,1.2317E+03,0.000E-01,4.132E-01
3.0159225E+00,5.92104E+01,1.3153E+01,1.2077E+03,8.1823E+00,1.2158E+03,0.000E-01,4.111E-01
3.0310021E+00,5.92313E+01,1.3048E+01,1.1921E+03,8.1679E+00,1.2003E+03,0.000E-01,4.091E-01
3.0461571E+00,5.92511E+01,1.2944E+01,1.1767E+03,8.1534E+00,1.1849E+03,0.000E-01,4.070E-01
3.0613879E+00,5.92696E+01,1.2841E+01,1.1616E+03,8.1388E+00,1.1697E+03,0.000E-01,4.050E-01
3.0766949E+00,5.92870E+01,1.2739E+01,1.1466E+03,8.1242E+00,1.1547E+03,0.000E-01,4.030E-01
3.0920783E+00,5.93033E+01,1.2638E+01,1.1319E+03,8.1094E+00,1.1400E+03,0.000E-01,4.010E-01
3.1075387E+00,5.93186E+01,1.2538E+01,1.1173E+03,8.0946E+00,1.1254E+03,0.000E-01,3.990E-01
3.1230764E+00,5.93329E+01,1.2439E+01,1.1030E+03,8.0796E+00,1.1110E+03,0.000E-01,3.970E-01
3.1386918E+00,5.93464E+01,1.2341E+01,1.0888E+03,8.0646E+00,1.0969E+03,0.000E-01,3.950E-01
3.1543853E+00,5.93589E+01,1.2243E+01,1.0748E+03,8.0495E+00,1.0829E+03,0.000E-01,3.931E-01
3.1701572E+00,5.93707E+01,1.2147E+01,1.0611E+03,8.0343E+00,1.0691E+03,0.000E-01,3.911E-01
3.1860080E+00,5.93816E+01,1.2051E+01,1.0475E+03,8.0190E+00,1.0555E+03,0.000E-01,3.892E-01
3.2019380E+00,5.93918E+01,1.1957E+01,1.0341E+03,8.0036E+00,1.0421E+03,0.000E-01,3.872E-01
3.2179477E+00,5.94012E+01,1.1863E+01,1.0208E+03,7.9881E+00,1.0288E+03,0.000E-01,3.853E-01
3.2340374E+00,5.94577E+01,1.1769E+01,1.0077E+03,7.9725E+00,1.0157E+03,0.000E-01,3.834E-01
3.2502076E+00,5.94661E+01,1.1675E+01,9.9470E+02,7.9569E+00,1.0027E+03,0.000E-01,3.815E-01
3.2664587E+00,5.94737E+01,1.1582E+01,9.8185E+02,7.9412E+00,9.8979E+02,0.000E-01,3.796E-01
3.2827910E+00,5.94804E+01,1.1489E+01,9.6918E+02,7.9253E+00,9.7710E+02,0.000E-01,3.777E-01
3.2992049E+00,5.94863E+01,1.1398E+01,9.5667E+02,7.9094E+00,9.6458E+02,0.000E-01,3.758E-01
3.3157009E+00,5.94915E+01,1.1307E+01,9.4434E+02,7.8935E+00,9.5223E+02,0.000E-01,3.739E-01
3.3322794E+00,5.94959E+01,1.1217E+01,9.3217E+02,7.8774E+00,9.4005E+02,0.000E-01,3.721E-01
3.3489408E+00,5.94997E+01,1.1128E+01,9.2017E+02,7.8613E+00,9.2803E+02,0.000E-01,3.702E-01
3.3656856E+00,5.95027E+01,1.1040E+01,9.0833E+02,7.8450E+00,9.1617E+02,0.000E-01,3.684E-01
3.3825140E+00,5.95051E+01,1.0952E+01,8.9665E+02,7.8287E+00,9.0448E+02,0.000E-01,3.665E-01
3.3994265E+00,5.95069E+01,1.0866E+01,8.8512E+02,7.8123E+00,8.9294E+02,0.000E-01,3.647E-01
3.4164237E+00,5.95081E+01,1.0780E+01,8.7376E+02,7.7959E+00,8.8155E+02,0.000E-01,3.629E-01
3.4335058E+00,5.95087E+01,1.0695E+01,8.6254E+02,7.7793E+00,8.7032E+02,0.000E-01,3.611E-01
3.4506733E+00,5.95087E+01,1.0610E+01,8.5148E+02,7.7627E+00,8.5924E+02,0.000E-01,3.593E-01
3.4679267E+00,5.95082E+01,1.0527E+01,8.4057E+02,7.7460E+00,8.4831E+02,0.000E-01,3.575E-01
3.4852663E+00,5.95071E+01,1.0444E+01,8.2980E+02,7.7293E+00,8.3753E+02,0.000E-01,3.557E-01
3.5026927E+00,5.95055E+01,1.0362E+01,8.1918E+02,7.7124E+00,8.2689E+02,0.000E-01,3.540E-01
3.5202061E+00,5.95034E+01,1.0280E+01,8.0870E+02,7.6955E+00,8.1639E+02,0.000E-01,3.522E-01
3.5378072E+00,5.95008E+01,1.0200E+01,7.9836E+02,7.6785E+00,8.0604E+02,0.000E-01,3.505E-01
3.5554962E+00,5.94978E+01,1.0120E+01,7.8816E+02,7.6615E+00,7.9582E+02,0.000E-01,3.487E-01
3.5732737E+00,5.94942E+01,1.0040E+01,7.7810E+02,7.6443E+00,7.8574E+02,0.000E-01,3.470E-01
3.5911400E+00,5.94903E+01,9.9618E+00,7.6817E+02,7.6271E+00,7.7580E+02,0.000E-01,3.453E-01
3.6090957E+00,5.95065E+01,9.8836E+00,7.5835E+02,7.6099E+00,7.6596E+02,0.000E-01,3.435E-01
3.6271412E+00,5.95018E+01,9.8057E+00,7.4863E+02,7.5925E+00,7.5622E+02,0.000E-01,3.418E-01
3.6452769E+00,5.94966E+01,9.7285E+00,7.3904E+02,7.5751E+00,7.4661E+02,0.000E-01,3.401E-01
3.6635033E+00,5.94909E+01,9.6520E+00,7.2957E+02,7.5576E+00,7.3713E+02,0.000E-01,3.384E-01
3.6818208E+00,5.94847E+01,9.5761E+00,7.2024E+02,7.5401E+00,7.2778E+02,0.000E-01,3.367E-01
3.7002299E+00,5.94781E+01,9.5010E+00,7.1103E+02,7.5225E+00,7.1855E+02,0.000E-01,3.351E-01
3.7187311E+00,5.94710E+01,9.4264E+00,7.0194E+02,7.5048E+00,7.0945E+02,0.000E-01,3.334E-01
3.7373247E+00,5.94634E+01,9.3526E+00,6.9298E+02,7.4871E+00,7.0047E+02,0.000E-01,3.317E-01
3.7560114E+00,5.94555E+01,9.2794E+00,6.8413E+02,7.4693E+00,6.9160E+02,0.000E-01,3.301E-01
3.7747914E+00,5.94471E+01,9.2068E+00,6.7541E+02,7.4514E+00,6.8286E+02,0.000E-01,3.285E-01
3.7936654E+00,5.94383E+01,9.1349E+00,6.6680E+02,7.4335E+00,6.7423E+02,0.000E-01,3.268E-01
3.8126337E+00,5.94291E+01,9.0636E+00,6.5830E+02,7.4155E+00,6.6572E+02,0.000E-01,3.252E-01
3.8316969E+00,5.94195E+01,8.9929E+00,6.4992E+02,7.3974E+00,6.5732E+02,0.000E-01,3.236E-01
3.8508554E+00,5.94095E+01,8.9229E+00,6.4165E+02,7.3793E+00,6.4903E+02,0.000E-01,3.220E-01
3.8701096E+00,5.93991E+01,8.8535E+00,6.3349E+02,7.3611E+00,6.4085E+02,0.000E-01,3.204E-01
3.8894602E+00,5.93884E+01,8.7847E+00,6.2544E+02,7.3429E+00,6.3278E+02,0.000E-01,3.188E-01
3.9089075E+00,5.93773E+01,8.7165E+00,6.1750E+02,7.3246E+00,6.2482E+02,0.000E-01,3.172E-01
3.9284520E+00,5.93658E+01,8.6488E+00,6.0966E+02,7.3063E+00,6.1696E+02,0.000E-01,3.156E-01
3.9480943E+00,5.93539E+01,8.5818E+00,6.0192E+02,7.2879E+00,6.0921E+02,0.000E-01,3.140E-01
3.9678347E+00,5.93417E+01,8.5154E+00,5.9429E+02,7.2694E+00,6.0156E+02,0.000E-01,3.125E-01
3.9876739E+00,5.93292E+01,8.4495E+00,5.8676E+02,7.2509E+00,5.9401E+02,0.000E-01,3.109E-01
4.055024E+00,5.96358E+01,8.2325E+00,5.6220E+02,7.2158E+00,5.6942E+02,0.000E+00,3.058E-01
4.334821E+00,5.93705E+01,7.4286E+00,4.7455E+02,6.9628E+00,4.8151E+02,0.000E+00,2.860E-01
4.633924E+00,5.90558E+01,6.7125E+00,4.0113E+02,6.7024E+00,4.0783E+02,0.000E+00,2.676E-01
4.953664E+00,5.86852E+01,6.0676E+00,3.3919E+02,6.4363E+00,3.4563E+02,0.000E+00,2.503E-01
5.295467E+00,5.82226E+01,5.4616E+00,2.8560E+02,6.1662E+00,2.9177E+02,0.000E+00,2.341E-01
5.660855E+00,5.76151E+01,4.9205E+00,2.4070E+02,5.8937E+00,2.4659E+02,0.000E+00,2.190E-01
6.051453E+00,5.67667E+01,4.4412E+00,2.0323E+02,5.6205E+00,2.0885E+02,0.000E+00,2.049E-01
6.469004E+00,5.53693E+01,4.0134E+00,1.7180E+02,5.3479E+00,1.7715E+02,0.000E+00,1.917E-01
6.837362E+00,5.24608E+01,3.6797E+00,1.4903E+02,5.1231E+00,1.5415E+02,0.000E+00,1.813E-01
6.915365E+00,5.06522E+01,3.6152E+00,1.4477E+02,5.0773E+00,1.4985E+02,0.000E+00,1.793E-01
6.942016E+00,4.94006E+01,3.5936E+00,1.4335E+02,5.0618E+00,1.4841E+02,0.000E+00,1.786E-01
6.969923E+00,4.58346E+01,3.5713E+00,1.4189E+02,5.0456E+00,1.4694E+02,0.000E+00,1.779E-01
7.011785E+00,4.93893E+01,1.0485E+01,4.1410E+02,5.0215E+00,4.1912E+02,0.000E+00,1.768E-01
7.116438E+00,5.24556E+01,1.0149E+01,3.9493E+02,4.9620E+00,3.9989E+02,0.000E+00,1.742E-01
7.392525E+00,5.41115E+01,9.3669E+00,3.5088E+02,4.8100E+00,3.5569E+02,0.000E+00,1.677E-01
7.464758E+00,5.40325E+01,9.2026E+00,3.4138E+02,4.7714E+00,3.4615E+02,0.000E+00,1.661E-01
7.579014E+00,5.29494E+01,8.9580E+00,3.2730E+02,4.7113E+00,3.3201E+02,0.000E+00,1.636E-01
7.609483E+00,5.12685E+01,8.8957E+00,3.2372E+02,4.6954E+00,3.2842E+02,0.000E+00,1.629E-01
7.655185E+00,5.31756E+01,1.2274E+01,4.4399E+02,4.6718E+00,4.4866E+02,0.000E+00,1.620E-01
7.769442E+00,5.49778E+01,1.1938E+01,4.2549E+02,4.6136E+00,4.3010E+02,0.000E+00,1.596E-01
7.890960E+00,5.56937E+01,1.1599E+01,4.0705E+02,4.5529E+00,4.1160E+02,0.000E+00,1.571E-01
7.902609E+00,5.57303E+01,1.1568E+01,4.0535E+02,4.5471E+00,4.0990E+02,0.000E+00,1.569E-01
8.011740E+00,5.56299E+01,1.1284E+01,3.9001E+02,4.4937E+00,3.9450E+02,0.000E+00,1.548E-01
8.043948E+00,5.48926E+01,1.1207E+01,3.8582E+02,4.4781E+00,3.9030E+02,0.000E+00,1.541E-01
8.092260E+00,5.59907E+01,1.2844E+01,4.3952E+02,4.4549E+00,4.4397E+02,0.000E+00,1.532E-01
8.213040E+00,5.72565E+01,1.2562E+01,4.2354E+02,4.3977E+00,4.2794E+02,0.000E+00,1.510E-01
8.447890E+00,5.85224E+01,1.2052E+01,3.9505E+02,4.2897E+00,3.9934E+02,0.000E+00,1.468E-01
9.030794E+00,6.03515E+01,1.0886E+01,3.3379E+02,4.0386E+00,3.3783E+02,0.000E+00,1.373E-01
9.653919E+00,6.14328E+01,9.7453E+00,2.7954E+02,3.7947E+00,2.8333E+02,0.000E+00,1.284E-01
2.011215E+01,6.32776E+01,2.8261E+00,3.8911E+01,1.7046E+00,4.0616E+01,0.000E+00,6.165E-02
2.149988E+01,6.31925E+01,2.5233E+00,3.2500E+01,1.5713E+00,3.4071E+01,0.000E+00,5.767E-02
2.298338E+01,6.31018E+01,2.2550E+00,2.7169E+01,1.4469E+00,2.8616E+01,0.000E+00,5.395E-02
2.456923E+01,6.30078E+01,2.0169E+00,2.2733E+01,1.3311E+00,2.4064E+01,0.000E+00,5.046E-02
2.626450E+01,6.29135E+01,1.8054E+00,1.9035E+01,1.2234E+00,2.0258E+01,0.000E+00,4.721E-02
2.807676E+01,6.28223E+01,1.6051E+00,1.5831E+01,1.1237E+00,1.6955E+01,0.000E+00,4.416E-02
3.001405E+01,6.27126E+01,1.4248E+00,1.3145E+01,1.0314E+00,1.4176E+01,0.000E+00,4.131E-02
3.208502E+01,6.25915E+01,1.2627E+00,1.0898E+01,9.4633E-01,1.1844E+01,0.000E+00,3.864E-02
3.429889E+01,6.24558E+01,1.1186E+00,9.0314E+00,8.6796E-01,9.8994E+00,0.000E+00,3.615E-02
3.666551E+01,6.22983E+01,9.8790E-01,7.4611E+00,7.9594E-01,8.2570E+00,0.000E+00,3.381E-02
3.919543E+01,6.21028E+01,8.7194E-01,6.1603E+00,7.2990E-01,6.8902E+00,0.000E+00,3.163E-02
4.189992E+01,6.18370E+01,7.6975E-01,5.0873E+00,6.6944E-01,5.7567E+00,0.000E+00,2.959E-02
4.479101E+01,6.13990E+01,6.8007E-01,4.2045E+00,6.1420E-01,4.8187E+00,0.000E+00,2.768E-02
4.754862E+01,6.03280E+01,6.0908E-01,3.5472E+00,5.6886E-01,4.1161E+00,0.000E+00,2.608E-02
4.788159E+01,5.99783E+01,6.0131E-01,3.4776E+00,5.6380E-01,4.0414E+00,0.000E+00,2.589E-02
4.827641E+01,5.91554E+01,5.9230E-01,3.3975E+00,5.5792E-01,3.9554E+00,0.000E+00,2.568E-02
4.847048E+01,5.77507E+01,5.8795E-01,3.3590E+00,5.5507E-01,3.9141E+00,0.000E+00,2.558E-02
4.876160E+01,5.91703E+01,3.3470E+00,1.9008E+01,5.5085E-01,1.9559E+01,1.571E+01,2.543E-02
4.948938E+01,6.04533E+01,3.2710E+00,1.8303E+01,5.4055E-01,1.8844E+01,1.514E+01,2.505E-02
5.118542E+01,6.14212E+01,3.1039E+00,1.6792E+01,5.1791E-01,1.7310E+01,1.391E+01,2.422E-02
5.471721E+01,6.22220E+01,2.7859E+00,1.4099E+01,4.7617E-01,1.4575E+01,1.171E+01,2.266E-02
5.849270E+01,6.26336E+01,2.4966E+00,1.1819E+01,4.3827E-01,1.2257E+01,9.843E+00,2.120E-02
6.252870E+01,6.28888E+01,2.2360E+00,9.9026E+00,4.0390E-01,1.0306E+01,8.263E+00,1.983E-02
6.684318E+01,6.30578E+01,1.9997E+00,8.2843E+00,3.7276E-01,8.6571E+00,6.923E+00,1.855E-02
7.145536E+01,6.31711E+01,1.7878E+00,6.9285E+00,3.4457E-01,7.2731E+00,5.797E+00,1.735E-02
7.638578E+01,6.32479E+01,1.5984E+00,5.7946E+00,3.1909E-01,6.1137E+00,4.854E+00,1.623E-02
8.165640E+01,6.33021E+01,1.4271E+00,4.8396E+00,2.9605E-01,5.1356E+00,4.059E+00,1.518E-02
8.729069E+01,6.33337E+01,1.2703E+00,4.0300E+00,2.7524E-01,4.3052E+00,3.387E+00,1.420E-02
9.331374E+01,6.33506E+01,1.1309E+00,3.3562E+00,2.5645E-01,3.6126E+00,2.826E+00,1.329E-02
9.975239E+01,6.33867E+01,1.0053E+00,2.7907E+00,2.3947E-01,3.0302E+00,2.353E+00,1.243E-02
2.078156E+02,6.32088E+01,2.6961E-01,3.5926E-01,1.3065E-01,4.8991E-01,3.041E-01,5.966E-03
2.221548E+02,6.31916E+01,2.4007E-01,2.9925E-01,1.2506E-01,4.2431E-01,2.534E-01,5.581E-03
2.374835E+02,6.31759E+01,2.1392E-01,2.4945E-01,1.1987E-01,3.6932E-01,2.113E-01,5.221E-03
2.538699E+02,6.31612E+01,1.9064E-01,2.0795E-01,1.1503E-01,3.2298E-01,1.763E-01,4.884E-03
2.713869E+02,6.31477E+01,1.6990E-01,1.7336E-01,1.1050E-01,2.8386E-01,1.470E-01,4.569E-03
2.901126E+02,6.31351E+01,1.5143E-01,1.4454E-01,1.0623E-01,2.5077E-01,1.226E-01,4.274E-03
3.101304E+02,6.31234E+01,1.3497E-01,1.2051E-01,1.0221E-01,2.2272E-01,1.023E-01,3.998E-03
3.315294E+02,6.31127E+01,1.2031E-01,1.0049E-01,9.8395E-02,1.9888E-01,8.528E-02,3.740E-03
3.544049E+02,6.31028E+01,1.0724E-01,8.3796E-02,9.4765E-02,1.7856E-01,7.112E-02,3.498E-03
3.788588E+02,6.30936E+01,9.5604E-02,6.9879E-02,9.1299E-02,1.6118E-01,5.932E-02,3.273E-03
4.050001E+02,6.30852E+01,8.5233E-02,5.8277E-02,8.7978E-02,1.4626E-01,4.947E-02,3.061E-03
4.329451E+02,6.30775E+01,7.5990E-02,4.8604E-02,8.4786E-02,1.3339E-01,4.126E-02,2.864E-03
