E [keV],f1 [e atom⁻¹],f2 [e atom⁻¹],μ/ρ [cm² g⁻¹],σ/ρ [cm² g⁻¹],μ/ρ total [cm² g⁻¹],μ/ρ_K [cm² g⁻¹],λ [nm]
2.0089931E+00,3.05691E+01,1.2465E+01,3.2675E+03,5.2522E+00,3.2728E+03,0.000E-01,6.171E-01
2.0190381E+00,3.06852E+01,1.2374E+01,3.2277E+03,5.2473E+00,3.2329E+03,0.000E-01,6.141E-01
2.0291333E+00,3.07978E+01,1.2284E+01,3.1881E+03,5.2423E+00,3.1934E+03,0.000E-01,6.110E-01
2.0392790E+00,3.09070E+01,1.2194E+01,3.1490E+03,5.2373E+00,3.1543E+03,0.000E-01,6.080E-01
2.0494754E+00,3.10132E+01,1.2105E+01,3.1105E+03,5.2322E+00,3.1157E+03,0.000E-01,6.050E-01
2.0597227E+00,3.11164E+01,1.2016E+01,3.0724E+03,5.2270E+00,3.0776E+03,0.000E-01,6.019E-01
2.0700213E+00,3.12169E+01,1.1929E+01,3.0348E+03,5.2217E+00,3.0400E+03,0.000E-01,5.990E-01
2.0803714E+00,3.13147E+01,1.1841E+01,2.9975E+03,5.2164E+00,3.0027E+03,0.000E-01,5.960E-01
2.0907733E+00,3.14098E+01,1.1754E+01,2.9606E+03,5.2109E+00,2.9658E+03,0.000E-01,5.930E-01
2.1012272E+00,3.15023E+01,1.1667E+01,2.9241E+03,5.2054E+00,2.9293E+03,0.000E-01,5.901E-01
2.1117333E+00,3.15922E+01,1.1581E+01,2.8881E+03,5.1998E+00,2.8933E+03,0.000E-01,5.871E-01
2.1222920E+00,3.16798E+01,1.1496E+01,2.8526E+03,5.1942E+00,2.8577E+03,0.000E-01,5.842E-01
2.1329034E+00,3.17650E+01,1.1411E+01,2.8174E+03,5.1884E+00,2.8226E+03,0.000E-01,5.813E-01
2.1435680E+00,3.18481E+01,1.1327E+01,2.7828E+03,5.1826E+00,2.7880E+03,0.000E-01,5.784E-01
2.1542858E+00,3.19291E+01,1.1243E+01,2.7485E+03,5.1768E+00,2.7537E+03,0.000E-01,5.755E-01
2.1650572E+00,3.20081E+01,1.1160E+01,2.7147E+03,5.1708E+00,2.7199E+03,0.000E-01,5.727E-01
2.1758825E+00,3.20851E+01,1.1078E+01,2.6813E+03,5.1648E+00,2.6865E+03,0.000E-01,5.698E-01
2.1867619E+00,3.21603E+01,1.0997E+01,2.6483E+03,5.1587E+00,2.6535E+03,0.000E-01,5.670E-01
2.1976957E+00,3.22336E+01,1.0916E+01,2.6157E+03,5.1525E+00,2.6209E+03,0.000E-01,5.642E-01
2.2086842E+00,3.23052E+01,1.0835E+01,2.5836E+03,5.1462E+00,2.5887E+03,0.000E-01,5.613E-01
2.2197276E+00,3.23752E+01,1.0756E+01,2.5518E+03,5.1399E+00,2.5569E+03,0.000E-01,5.586E-01
2.2308263E+00,3.24435E+01,1.0676E+01,2.5204E+03,5.1335E+00,2.5255E+03,0.000E-01,5.558E-01
2.2419804E+00,3.25103E+01,1.0598E+01,2.4894E+03,5.1271E+00,2.4945E+03,0.000E-01,5.530E-01
2.2531903E+00,3.25755E+01,1.0520E+01,2.4588E+03,5.1205E+00,2.4639E+03,0.000E-01,5.503E-01
2.2644562E+00,3.26394E+01,1.0442E+01,2.4286E+03,5.1139E+00,2.4337E+03,0.000E-01,5.475E-01
2.2757785E+00,3.27018E+01,1.0366E+01,2.3987E+03,5.1072E+00,2.4038E+03,0.000E-01,5.448E-01
2.2871574E+00,3.27629E+01,1.0289E+01,2.3692E+03,5.1005E+00,2.3743E+03,0.000E-01,5.421E-01
2.2985932E+00,3.28227E+01,1.0214E+01,2.3400E+03,5.0937E+00,2.3451E+03,0.000E-01,5.394E-01
2.3100862E+00,3.28814E+01,1.0138E+01,2.3113E+03,5.0868E+00,2.3163E+03,0.000E-01,5.367E-01
2.3216366E+00,3.29389E+01,1.0063E+01,2.2827E+03,5.0798E+00,2.2878E+03,0.000E-01,5.340E-01
2.3332448E+00,3.29949E+01,9.9879E+00,2.2544E+03,5.0728E+00,2.2594E+03,0.000E-01,5.314E-01
2.3449110E+00,3.30495E+01,9.9131E+00,2.2264E+03,5.0657E+00,2.2314E+03,0.000E-01,5.287E-01
2.3566356E+00,3.31028E+01,9.8389E+00,2.1987E+03,5.0585E+00,2.2038E+03,0.000E-01,5.261E-01
2.3684187E+00,3.31548E+01,9.7652E+00,2.1714E+03,5.0513E+00,2.1764E+03,0.000E-01,5.235E-01
2.3802608E+00,3.32056E+01,9.6921E+00,2.1444E+03,5.0440E+00,2.1494E+03,0.000E-01,5.209E-01
2.3921621E+00,3.32552E+01,9.6195E+00,2.1177E+03,5.0366E+00,2.1228E+03,0.000E-01,5.183E-01
2.4041230E+00,3.33037E+01,9.5474E+00,2.0914E+03,5.0292E+00,2.0964E+03,0.000E-01,5.157E-01
2.4161436E+00,3.33510E+01,9.4758E+00,2.0654E+03,5.0217E+00,2.0704E+03,0.000E-01,5.131E-01
2.4282243E+00,3.33972E+01,9.4048E+00,2.0397E+03,5.0141E+00,2.0447E+03,0.000E-01,5.106E-01
2.4403654E+00,3.34424E+01,9.3342E+00,2.0143E+03,5.0065E+00,2.0194E+03,0.000E-01,5.081E-01
2.4525672E+00,3.34866E+01,9.2642E+00,1.9893E+03,4.9988E+00,1.9943E+03,0.000E-01,5.055E-01
2.4648301E+00,3.35297E+01,9.1947E+00,1.9645E+03,4.9910E+00,1.9695E+03,0.000E-01,5.030E-01
2.4771542E+00,3.35719E+01,9.1257E+00,1.9401E+03,4.9832E+00,1.9451E+03,0.000E-01,5.005E-01
2.4895400E+00,3.36131E+01,9.0572E+00,1.9160E+03,4.9753E+00,1.9209E+03,0.000E-01,4.980E-01
2.5019877E+00,3.36534E+01,8.9892E+00,1.8921E+03,4.9674E+00,1.8971E+03,0.000E-01,4.955E-01
2.5144976E+00,3.36928E+01,8.9217E+00,1.8686E+03,4.9594E+00,1.8735E+03,0.000E-01,4.931E-01
2.5270701E+00,3.37314E+01,8.8547E+00,1.8453E+03,4.9513E+00,1.8503E+03,0.000E-01,4.906E-01
2.5397055E+00,3.37690E+01,8.7882E+00,1.8223E+03,4.9431E+00,1.8273E+03,0.000E-01,4.882E-01
2.5524040E+00,3.38059E+01,8.7222E+00,1.7996E+03,4.9349E+00,1.8046E+03,0.000E-01,4.858E-01
2.5651660E+00,3.38419E+01,8.6567E+00,1.7772E+03,4.9267E+00,1.7822E+03,0.000E-01,4.833E-01
2.5779919E+00,3.38771E+01,8.5917E+00,1.7551E+03,4.9184E+00,1.7600E+03,0.000E-01,4.809E-01
2.5908818E+00,3.39116E+01,8.5271E+00,1.7333E+03,4.9100E+00,1.7382E+03,0.000E-01,4.785E-01
2.6038362E+00,3.39453E+01,8.4631E+00,1.7117E+03,4.9015E+00,1.7166E+03,0.000E-01,4.762E-01
2.6168554E+00,3.39783E+01,8.3995E+00,1.6904E+03,4.8930E+00,1.6953E+03,0.000E-01,4.738E-01
2.6299397E+00,3.40105E+01,8.3364E+00,1.6693E+03,4.8845E+00,1.6742E+03,0.000E-01,4.714E-01
2.6430894E+00,3.40421E+01,8.2737E+00,1.6485E+03,4.8758E+00,1.6534E+03,0.000E-01,4.691E-01
2.6563048E+00,3.40730E+01,8.2116E+00,1.6280E+03,4.8672E+00,1.6329E+03,0.000E-01,4.668E-01
2.6695863E+00,3.41032E+01,8.1499E+00,1.6077E+03,4.8584E+00,1.6126E+03,0.000E-01,4.644E-01
2.6829343E+00,3.41328E+01,8.0887E+00,1.5877E+03,4.8496E+00,1.5926E+03,0.000E-01,4.621E-01
2.6963489E+00,3.41617E+01,8.0279E+00,1.5680E+03,4.8408E+00,1.5728E+03,0.000E-01,4.598E-01
2.7098307E+00,3.41900E+01,7.9676E+00,1.5485E+03,4.8319E+00,1.5533E+03,0.000E-01,4.575E-01
2.7233798E+00,3.42177E+01,7.9078E+00,1.5292E+03,4.8229E+00,1.5340E+03,0.000E-01,4.553E-01
2.7369967E+00,3.42449E+01,7.8484E+00,1.5101E+03,4.8139E+00,1.5150E+03,0.000E-01,4.530E-01
2.7506817E+00,3.42715E+01,7.7895E+00,1.4914E+03,4.8048E+00,1.4962E+03,0.000E-01,4.507E-01
2.7644351E+00,3.42975E+01,7.7310E+00,1.4728E+03,4.7957E+00,1.4776E+03,0.000E-01,4.485E-01
2.7782573E+00,3.43230E+01,7.6730E+00,1.4545E+03,4.7865E+00,1.4593E+03,0.000E-01,4.463E-01
2.7921486E+00,3.43480E+01,7.6155E+00,1.4364E+03,4.7773E+00,1.4412E+03,0.000E-01,4.440E-01
2.8061093E+00,3.43725E+01,7.5583E+00,1.4185E+03,4.7680E+00,1.4233E+03,0.000E-01,4.418E-01
2.8201399E+00,3.43964E+01,7.5017E+00,1.4009E+03,4.7586E+00,1.4056E+03,0.000E-01,4.396E-01
2.8342406E+00,3.44200E+01,7.4454E+00,1.3834E+03,4.7492E+00,1.3882E+03,0.000E-01,4.375E-01
2.8484118E+00,3.44431E+01,7.3896E+00,1.3662E+03,4.7398E+00,1.3710E+03,0.000E-01,4.353E-01
2.8626539E+00,3.44657E+01,7.3342E+00,1.3493E+03,4.7303E+00,1.3540E+03,0.000E-01,4.331E-01
2.8769671E+00,3.44879E+01,7.2793E+00,1.3325E+03,4.7207E+00,1.3372E+03,0.000E-01,4.310E-01
2.8913520E+00,3.45098E+01,7.2248E+00,1.3159E+03,4.7111E+00,1.3206E+03,0.000E-01,4.288E-01
2.9058087E+00,3.45312E+01,7.1707E+00,1.2996E+03,4.7015E+00,1.3043E+03,0.000E-01,4.267E-01
2.9203378E+00,3.45523E+01,7.1171E+00,1.2834E+03,4.6918E+00,1.2881E+03,0.000E-01,4.246E-01
2.9349394E+00,3.45731E+01,7.0638E+00,1.2675E+03,4.6820E+00,1.2722E+03,0.000E-01,4.224E-01
2.9496141E+00,3.45937E+01,7.0110E+00,1.2518E+03,4.6722E+00,1.2564E+03,0.000E-01,4.203E-01
2.9643622E+00,3.46139E+01,6.9586E+00,1.2362E+03,4.6624E+00,1.2409E+03,0.000E-01,4.182E-01
2.9791840E+00,3.46341E+01,6.9066E+00,1.2209E+03,4.6525E+00,1.2256E+03,0.000E-01,4.162E-01
2.9940799E+00,3.46541E+01,6.8551E+00,1.2058E+03,4.6425E+00,1.2104E+03,0.000E-01,4.141E-01
3.0090503E+00,3.46779E+01,6.8016E+00,1.1904E+03,4.6325E+00,1.1950E+03,0.000E-01,4.120E-01
3.0240956E+00,3.47003E+01,6.7472E+00,1.1750E+03,4.6225E+00,1.1796E+03,0.000E-01,4.100E-01
3.0392161E+00,3.47205E+01,6.6931E+00,1.1598E+03,4.6124E+00,1.1644E+03,0.000E-01,4.079E-01
3.0544122E+00,3.47395E+01,6.6395E+00,1.1448E+03,4.6023E+00,1.1494E+03,0.000E-01,4.059E-01
3.0696842E+00,3.47576E+01,6.5864E+00,1.1300E+03,4.5921E+00,1.1346E+03,0.000E-01,4.039E-01
3.0850326E+00,3.47751E+01,6.5337E+00,1.1153E+03,4.5819E+00,1.1199E+03,0.000E-01,4.019E-01
3.1004578E+00,3.48925E+01,6.4813E+00,1.1009E+03,4.5716E+00,1.1055E+03,0.000E-01,3.999E-01
3.1159601E+00,3.49089E+01,6.4271E+00,1.0863E+03,4.5613E+00,1.0908E+03,0.000E-01,3.979E-01
3.1315399E+00,3.49247E+01,6.3735E+00,1.0718E+03,4.5510E+00,1.0764E+03,0.000E-01,3.959E-01
3.1471976E+00,3.49397E+01,6.3203E+00,1.0576E+03,4.5406E+00,1.0621E+03,0.000E-01,3.940E-01
3.1629336E+00,3.49542E+01,6.2676E+00,1.0436E+03,4.5301E+00,1.0481E+03,0.000E-01,3.920E-01
3.1787482E+00,3.49681E+01,6.2154E+00,1.0297E+03,4.5196E+00,1.0342E+03,0.000E-01,3.900E-01
3.1946420E+00,3.50325E+01,6.1634E+00,1.0160E+03,4.5091E+00,1.0205E+03,0.000E-01,3.881E-01
3.2106152E+00,3.50453E+01,6.1109E+00,1.0024E+03,4.4986E+00,1.0069E+03,0.000E-01,3.862E-01
3.2266683E+00,3.50576E+01,6.0589E+00,9.8890E+02,4.4880E+00,9.9339E+02,0.000E-01,3.842E-01
3.2428016E+00,3.50692E+01,6.0074E+00,9.7561E+02,4.4773E+00,9.8009E+02,0.000E-01,3.823E-01
3.2590156E+00,3.50803E+01,5.9564E+00,9.6251E+02,4.4666E+00,9.6698E+02,0.000E-01,3.804E-01
3.2753107E+00,3.50908E+01,5.9058E+00,9.4959E+02,4.4559E+00,9.5404E+02,0.000E-01,3.785E-01
3.2916873E+00,3.51008E+01,5.8557E+00,9.3685E+02,4.4452E+00,9.4129E+02,0.000E-01,3.767E-01
3.3081457E+00,3.51104E+01,5.8060E+00,9.2428E+02,4.4344E+00,9.2872E+02,0.000E-01,3.748E-01
3.3246864E+00,3.51195E+01,5.7568E+00,9.1189E+02,4.4235E+00,9.1631E+02,0.000E-01,3.729E-01
3.3413099E+00,3.51282E+01,5.7081E+00,8.9967E+02,4.4126E+00,9.0409E+02,0.000E-01,3.711E-01
3.3580164E+00,3.51365E+01,5.6598E+00,8.8762E+02,4.4017E+00,8.9202E+02,0.000E-01,3.692E-01
3.3748065E+00,3.51443E+01,5.6120E+00,8.7574E+02,4.3908E+00,8.8013E+02,0.000E-01,3.674E-01
3.3916805E+00,3.51518E+01,5.5645E+00,8.6402E+02,4.3798E+00,8.6840E+02,0.000E-01,3.656E-01
3.4086389E+00,3.51590E+01,5.5176E+00,8.5247E+02,4.3688E+00,8.5683E+02,0.000E-01,3.637E-01
3.4256821E+00,3.51658E+01,5.4707E+00,8.4102E+02,4.3577E+00,8.4537E+02,0.000E-01,3.619E-01
3.4428105E+00,3.51722E+01,5.4242E+00,8.2973E+02,4.3466E+00,8.3407E+02,0.000E-01,3.601E-01
3.4600246E+00,3.51783E+01,5.3782E+00,8.1859E+02,4.3355E+00,8.2293E+02,0.000E-01,3.583E-01
3.4773247E+00,3.51841E+01,5.3326E+00,8.0761E+02,4.3244E+00,8.1194E+02,0.000E-01,3.566E-01
3.4947113E+00,3.51896E+01,5.2874E+00,7.9679E+02,4.3132E+00,8.0110E+02,0.000E-01,3.548E-01
3.5121849E+00,3.51948E+01,5.2426E+00,7.8611E+02,4.3019E+00,7.9041E+02,0.000E-01,3.530E-01
3.5297458E+00,3.51998E+01,5.1983E+00,7.7558E+02,4.2907E+00,7.7987E+02,0.000E-01,3.513E-01
3.5473945E+00,3.52045E+01,5.1543E+00,7.6520E+02,4.2794E+00,7.6948E+02,0.000E-01,3.495E-01
3.5651315E+00,3.52495E+01,5.1106E+00,7.5493E+02,4.2681E+00,7.5920E+02,0.000E-01,3.478E-01
3.5829572E+00,3.52539E+01,5.0661E+00,7.4463E+02,4.2567E+00,7.4888E+02,0.000E-01,3.460E-01
3.6008719E+00,3.52579E+01,5.0219E+00,7.3446E+02,4.2454E+00,7.3871E+02,0.000E-01,3.443E-01
3.6188763E+00,3.52616E+01,4.9782E+00,7.2444E+02,4.2339E+00,7.2868E+02,0.000E-01,3.426E-01
3.6369707E+00,3.52649E+01,4.9348E+00,7.1456E+02,4.2225E+00,7.1879E+02,0.000E-01,3.409E-01
3.6551555E+00,3.52678E+01,4.8919E+00,7.0482E+02,4.2110E+00,7.0903E+02,0.000E-01,3.392E-01
3.6734313E+00,3.52705E+01,4.8493E+00,6.9522E+02,4.1995E+00,6.9941E+02,0.000E-01,3.375E-01
3.6917985E+00,3.52728E+01,4.8072E+00,6.8574E+02,4.1880E+00,6.8993E+02,0.000E-01,3.358E-01
3.7102575E+00,3.52749E+01,4.7654E+00,6.7640E+02,4.1765E+00,6.8058E+02,0.000E-01,3.342E-01
3.7288088E+00,3.52767E+01,4.7240E+00,6.6719E+02,4.1649E+00,6.7136E+02,0.000E-01,3.325E-01
3.7474528E+00,3.52782E+01,4.6830E+00,6.5811E+02,4.1533E+00,6.6227E+02,0.000E-01,3.308E-01
3.7661901E+00,3.52794E+01,4.6424E+00,6.4916E+02,4.1417E+00,6.5330E+02,0.000E-01,3.292E-01
3.7850210E+00,3.52804E+01,4.6022E+00,6.4033E+02,4.1300E+00,6.4446E+02,0.000E-01,3.276E-01
3.8039461E+00,3.52812E+01,4.5623E+00,6.3162E+02,4.1183E+00,6.3574E+02,0.000E-01,3.259E-01
3.8229659E+00,3.52817E+01,4.5228E+00,6.2304E+02,4.1066E+00,6.2714E+02,0.000E-01,3.243E-01
3.8420807E+00,3.52820E+01,4.4836E+00,6.1457E+02,4.0949E+00,6.1867E+02,0.000E-01,3.227E-01
3.8612911E+00,3.52821E+01,4.4448E+00,6.0623E+02,4.0831E+00,6.1031E+02,0.000E-01,3.211E-01
3.8805975E+00,3.52819E+01,4.4064E+00,5.9799E+02,4.0713E+00,6.0207E+02,0.000E-01,3.195E-01
3.9000005E+00,3.52816E+01,4.3683E+00,5.8988E+02,4.0595E+00,5.9394E+02,0.000E-01,3.179E-01
3.9195005E+00,3.52810E+01,4.3306E+00,5.8187E+02,4.0477E+00,5.8592E+02,0.000E-01,3.163E-01
3.9390980E+00,3.52803E+01,4.2932E+00,5.7398E+02,4.0359E+00,5.7802E+02,0.000E-01,3.148E-01
3.9587935E+00,3.52794E+01,4.2562E+00,5.6620E+02,4.0240E+00,5.7022E+02,0.000E-01,3.132E-01
3.9785875E+00,3.52783E+01,4.2195E+00,5.5852E+02,4.0121E+00,5.6254E+02,0.000E-01,3.116E-01
3.9984804E+00,3.52770E+01,4.1831E+00,5.5096E+02,4.0002E+00,5.5496E+02,0.000E-01,3.101E-01
4.0184728E+00,3.52755E+01,4.1471E+00,5.4349E+02,3.9883E+00,5.4748E+02,0.000E-01,3.085E-01
4.0385652E+00,3.52739E+01,4.1114E+00,5.3614E+02,3.9763E+00,5.4011E+02,0.000E-01,3.070E-01
4.0587580E+00,3.52722E+01,4.0760E+00,5.2888E+02,3.9643E+00,5.3284E+02,0.000E-01,3.055E-01
4.0790518E+00,3.52702E+01,4.0410E+00,5.2172E+02,3.9523E+00,5.2568E+02,0.000E-01,3.040E-01
4.0994471E+00,3.52681E+01,4.0063E+00,5.1467E+02,3.9403E+00,5.1861E+02,0.000E-01,3.024E-01
4.1199443E+00,3.52659E+01,3.9719E+00,5.0771E+02,3.9283E+00,5.1164E+02,0.000E-01,3.009E-01
4.1405440E+00,3.52635E+01,3.9378E+00,5.0085E+02,3.9163E+00,5.0476E+02,0.000E-01,2.994E-01
4.1612467E+00,3.52610E+01,3.9040E+00,4.9408E+02,3.9042E+00,4.9798E+02,0.000E-01,2.979E-01
4.1820530E+00,3.52584E+01,3.8705E+00,4.8741E+02,3.8921E+00,4.9130E+02,0.000E-01,2.965E-01
4.2029632E+00,3.52556E+01,3.8374E+00,4.8082E+02,3.8800E+00,4.8470E+02,0.000E-01,2.950E-01
4.2239781E+00,3.52527E+01,3.8045E+00,4.7434E+02,3.8679E+00,4.7820E+02,0.000E-01,2.935E-01
4.2450980E+00,3.52497E+01,3.7719E+00,4.6794E+02,3.8558E+00,4.7179E+02,0.000E-01,2.921E-01
4.2663234E+00,3.52466E+01,3.7397E+00,4.6162E+02,3.8437E+00,4.6547E+02,0.000E-01,2.906E-01
4.2876551E+00,3.52433E+01,3.7077E+00,4.5540E+02,3.8315E+00,4.5923E+02,0.000E-01,2.892E-01
4.3090933E+00,3.52399E+01,3.6760E+00,4.4926E+02,3.8193E+00,4.5308E+02,0.000E-01,2.877E-01
4.3306388E+00,3.52364E+01,3.6446E+00,4.4321E+02,3.8071E+00,4.4702E+02,0.000E-01,2.863E-01
4.3522920E+00,3.52329E+01,3.6135E+00,4.3724E+02,3.7949E+00,4.4104E+02,0.000E-01,2.849E-01
4.3740535E+00,3.52292E+01,3.5827E+00,4.3136E+02,3.7827E+00,4.3514E+02,0.000E-01,2.835E-01
4.3959237E+00,3.52254E+01,3.5521E+00,4.2555E+02,3.7705E+00,4.2932E+02,0.000E-01,2.820E-01
4.4179033E+00,3.52215E+01,3.5219E+00,4.1983E+02,3.7583E+00,4.2358E+02,0.000E-01,2.806E-01
4.4399929E+00,3.52175E+01,3.4919E+00,4.1418E+02,3.7460E+00,4.1793E+02,0.000E-01,2.792E-01
4.4621928E+00,3.52134E+01,3.4622E+00,4.0861E+02,3.7338E+00,4.1235E+02,0.000E-01,2.779E-01
4.4845038E+00,3.52093E+01,3.4327E+00,4.0312E+02,3.7215E+00,4.0684E+02,0.000E-01,2.765E-01
4.5069263E+00,3.52050E+01,3.4035E+00,3.9771E+02,3.7092E+00,4.0141E+02,0.000E-01,2.751E-01
4.5294609E+00,3.52007E+01,3.3746E+00,3.9236E+02,3.6969E+00,3.9606E+02,0.000E-01,2.737E-01
4.5521082E+00,3.51963E+01,3.3460E+00,3.8710E+02,3.6846E+00,3.9078E+02,0.000E-01,2.724E-01
4.5748688E+00,3.51918E+01,3.3176E+00,3.8190E+02,3.6723E+00,3.8558E+02,0.000E-01,2.710E-01
4.5977431E+00,3.51872E+01,3.2894E+00,3.7678E+02,3.6600E+00,3.8044E+02,0.000E-01,2.697E-01
4.6207318E+00,3.51826E+01,3.2616E+00,3.7173E+02,3.6477E+00,3.7538E+02,0.000E-01,2.683E-01
4.6438355E+00,3.51779E+01,3.2339E+00,3.6675E+02,3.6354E+00,3.7038E+02,0.000E-01,2.670E-01
4.6670547E+00,3.51731E+01,3.2066E+00,3.6183E+02,3.6230E+00,3.6545E+02,0.000E-01,2.657E-01
4.6903900E+00,3.51682E+01,3.1794E+00,3.5699E+02,3.6107E+00,3.6060E+02,0.000E-01,2.643E-01
4.7138419E+00,3.51633E+01,3.1525E+00,3.5221E+02,3.5983E+00,3.5580E+02,0.000E-01,2.630E-01
4.7374111E+00,3.51583E+01,3.1259E+00,3.4749E+02,3.5860E+00,3.5108E+02,0.000E-01,2.617E-01
4.7610982E+00,3.51533E+01,3.0995E+00,3.4284E+02,3.5736E+00,3.4642E+02,0.000E-01,2.604E-01
4.7849037E+00,3.51482E+01,3.0733E+00,3.3826E+02,3.5612E+00,3.4182E+02,0.000E-01,2.591E-01
4.8088282E+00,3.51430E+01,3.0474E+00,3.3374E+02,3.5489E+00,3.3728E+02,0.000E-01,2.578E-01
4.8328723E+00,3.51378E+01,3.0216E+00,3.2927E+02,3.5365E+00,3.3280E+02,0.000E-01,2.565E-01
4.8570367E+00,3.51325E+01,2.9961E+00,3.2486E+02,3.5241E+00,3.2838E+02,0.000E-01,2.553E-01
4.8813219E+00,3.51272E+01,2.9707E+00,3.2051E+02,3.5117E+00,3.2402E+02,0.000E-01,2.540E-01
4.9057285E+00,3.51218E+01,2.9456E+00,3.1622E+02,3.4993E+00,3.1972E+02,0.000E-01,2.527E-01
4.9302571E+00,3.51164E+01,2.9207E+00,3.1198E+02,3.4869E+00,3.1547E+02,0.000E-01,2.515E-01
4.9549084E+00,3.51109E+01,2.8961E+00,3.0781E+02,3.4745E+00,3.1129E+02,0.000E-01,2.502E-01
4.9796829E+00,3.51053E+01,2.8716E+00,3.0370E+02,3.4621E+00,3.0716E+02,0.000E-01,2.490E-01
5.0045814E+00,3.50997E+01,2.8474E+00,2.9964E+02,3.4497E+00,3.0309E+02,0.000E-01,2.477E-01
5.0296043E+00,3.50941E+01,2.8234E+00,2.9563E+02,3.4373E+00,2.9907E+02,0.000E-01,2.465E-01
5.0547523E+00,3.50884E+01,2.7996E+00,2.9168E+02,3.4249E+00,2.9511E+02,0.000E-01,2.453E-01
5.0800260E+00,3.50826E+01,2.7761E+00,2.8779E+02,3.4125E+00,2.9120E+02,0.000E-01,2.441E-01
5.1054262E+00,3.50769E+01,2.7527E+00,2.8395E+02,3.4001E+00,2.8735E+02,0.000E-01,2.428E-01
5.1309533E+00,3.50711E+01,2.7296E+00,2.8016E+02,3.3877E+00,2.8355E+02,0.000E-01,2.416E-01
5.1566081E+00,3.50652E+01,2.7066E+00,2.7642E+02,3.3753E+00,2.7980E+02,0.000E-01,2.404E-01
5.1823911E+00,3.50593E+01,2.6839E+00,2.7274E+02,3.3629E+00,2.7610E+02,0.000E-01,2.392E-01
5.2083031E+00,3.50534E+01,2.6614E+00,2.6910E+02,3.3505E+00,2.7245E+02,0.000E-01,2.381E-01
5.2343446E+00,3.50474E+01,2.6390E+00,2.6552E+02,3.3381E+00,2.6886E+02,0.000E-01,2.369E-01
5.2605163E+00,3.50414E+01,2.6169E+00,2.6198E+02,3.3257E+00,2.6531E+02,0.000E-01,2.357E-01
5.2868189E+00,3.50353E+01,2.5950E+00,2.5849E+02,3.3133E+00,2.6181E+02,0.000E-01,2.345E-01
5.3132530E+00,3.50293E+01,2.5732E+00,2.5505E+02,3.3009E+00,2.5835E+02,0.000E-01,2.333E-01
5.3398192E+00,3.50232E+01,2.5517E+00,2.5166E+02,3.2885E+00,2.5495E+02,0.000E-01,2.322E-01
5.3665183E+00,3.50170E+01,2.5304E+00,2.4831E+02,3.2761E+00,2.5159E+02,0.000E-01,2.310E-01
5.3933509E+00,3.50109E+01,2.5092E+00,2.4501E+02,3.2638E+00,2.4828E+02,0.000E-01,2.299E-01
5.4203177E+00,3.50047E+01,2.4882E+00,2.4176E+02,3.2514E+00,2.4501E+02,0.000E-01,2.287E-01
5.4474193E+00,3.49984E+01,2.4675E+00,2.3855E+02,3.2390E+00,2.4178E+02,0.000E-01,2.276E-01
5.4746564E+00,3.49922E+01,2.4469E+00,2.3538E+02,3.2266E+00,2.3860E+02,0.000E-01,2.265E-01
5.5020297E+00,3.49859E+01,2.4265E+00,2.3225E+02,3.2143E+00,2.3547E+02,0.000E-01,2.253E-01
5.5295398E+00,3.49796E+01,2.4062E+00,2.2917E+02,3.2019E+00,2.3237E+02,0.000E-01,2.242E-01
5.5571875E+00,3.49733E+01,2.3862E+00,2.2613E+02,3.1896E+00,2.2932E+02,0.000E-01,2.231E-01
5.5849734E+00,3.49669E+01,2.3663E+00,2.2313E+02,3.1772E+00,2.2631E+02,0.000E-01,2.220E-01
5.6128983E+00,3.49606E+01,2.3466E+00,2.2018E+02,3.1649E+00,2.2334E+02,0.000E-01,2.209E-01
5.6409628E+00,3.49542E+01,2.3271E+00,2.1726E+02,3.1525E+00,2.2041E+02,0.000E-01,2.198E-01
5.6691676E+00,3.49478E+01,2.3078E+00,2.1438E+02,3.1402E+00,2.1752E+02,0.000E-01,2.187E-01
5.6975135E+00,3.49413E+01,2.2886E+00,2.1154E+02,3.1279E+00,2.1467E+02,0.000E-01,2.176E-01
5.7260010E+00,3.49349E+01,2.2696E+00,2.0874E+02,3.1156E+00,2.1186E+02,0.000E-01,2.165E-01
5.7546310E+00,3.49284E+01,2.2508E+00,2.0598E+02,3.1033E+00,2.0908E+02,0.000E-01,2.155E-01
5.7834042E+00,3.49219E+01,2.2321E+00,2.0326E+02,3.0910E+00,2.0635E+02,0.000E-01,2.144E-01
5.8123212E+00,3.49154E+01,2.2136E+00,2.0057E+02,3.0787E+00,2.0365E+02,0.000E-01,2.133E-01
5.8413828E+00,3.49089E+01,2.1953E+00,1.9792E+02,3.0664E+00,2.0099E+02,0.000E-01,2.123E-01
5.8705897E+00,3.49024E+01,2.1771E+00,1.9531E+02,3.0542E+00,1.9836E+02,0.000E-01,2.112E-01
5.8999427E+00,3.48958E+01,2.1591E+00,1.9273E+02,3.0419E+00,1.9577E+02,0.000E-01,2.101E-01
5.9294424E+00,3.48892E+01,2.1413E+00,1.9018E+02,3.0296E+00,1.9321E+02,0.000E-01,2.091E-01
5.9590896E+00,3.48827E+01,2.1236E+00,1.8767E+02,3.0174E+00,1.9069E+02,0.000E-01,2.081E-01
5.9888850E+00,3.48761E+01,2.1061E+00,1.8520E+02,3.0052E+00,1.8820E+02,0.000E-01,2.070E-01
6.0188295E+00,3.48695E+01,2.0887E+00,1.8276E+02,2.9930E+00,1.8575E+02,0.000E-01,2.060E-01
