E [keV],f1 [e atom⁻¹],f2 [e atom⁻¹],μ/ρ [cm² g⁻¹],σ/ρ [cm² g⁻¹],μ/ρ total [cm² g⁻¹],μ/ρ_K [cm² g⁻¹],λ [nm]
2.080733E+00,6.15192E+00,1.4650E-01,2.4667E+02,8.5298E-01,2.4752E+02,2.358E+02,5.959E-01
2.224304E+00,6.13897E+00,1.2883E-01,2.0292E+02,8.2201E-01,2.0374E+02,1.939E+02,5.574E-01
2.377781E+00,6.12696E+00,1.1330E-01,1.6694E+02,7.9106E-01,1.6773E+02,1.595E+02,5.214E-01
2.541848E+00,6.11588E+00,9.9638E-02,1.3733E+02,7.6028E-01,1.3809E+02,1.312E+02,4.878E-01
2.717235E+00,6.10571E+00,8.7625E-02,1.1298E+02,7.2982E-01,1.1371E+02,1.079E+02,4.563E-01
2.904724E+00,6.09643E+00,7.7061E-02,9.2946E+01,6.9982E-01,9.3646E+01,8.875E+01,4.268E-01
3.105150E+00,6.08790E+00,6.7420E-02,7.6069E+01,6.7040E-01,7.6739E+01,7.263E+01,3.993E-01
3.319406E+00,6.07984E+00,5.8701E-02,6.1956E+01,6.4168E-01,6.2598E+01,5.915E+01,3.735E-01
3.548445E+00,6.07234E+00,5.1109E-02,5.0461E+01,6.1373E-01,5.1075E+01,4.818E+01,3.494E-01
3.793288E+00,6.06543E+00,4.4499E-02,4.1099E+01,5.8666E-01,4.1686E+01,3.924E+01,3.269E-01
4.055024E+00,6.05909E+00,3.8744E-02,3.3474E+01,5.6054E-01,3.4035E+01,3.196E+01,3.058E-01
4.334821E+00,6.05329E+00,3.3733E-02,2.7264E+01,5.3541E-01,2.7799E+01,2.603E+01,2.860E-01
4.633924E+00,6.04802E+00,2.9370E-02,2.2206E+01,5.1132E-01,2.2717E+01,2.121E+01,2.676E-01
4.953664E+00,6.04323E+00,2.5572E-02,1.8086E+01,4.8832E-01,1.8574E+01,1.727E+01,2.503E-01
5.295467E+00,6.03890E+00,2.2265E-02,1.4731E+01,4.6642E-01,1.5197E+01,1.407E+01,2.341E-01
5.660855E+00,6.03498E+00,1.9289E-02,1.1938E+01,4.4563E-01,1.2384E+01,1.140E+01,2.190E-01
6.051453E+00,6.03140E+00,1.6703E-02,9.6701E+00,4.2596E-01,1.0096E+01,9.231E+00,2.049E-01
6.469004E+00,6.02815E+00,1.4463E-02,7.8329E+00,4.0741E-01,8.2403E+00,7.475E+00,1.917E-01
6.915365E+00,6.02520E+00,1.2524E-02,6.3448E+00,3.8995E-01,6.7348E+00,6.054E+00,1.793E-01
7.392525E+00,6.02255E+00,1.0844E-02,5.1394E+00,3.7356E-01,5.5130E+00,4.902E+00,1.677E-01
7.902609E+00,6.02016E+00,9.3904E-03,4.1630E+00,3.5823E-01,4.5212E+00,3.970E+00,1.569E-01
8.447890E+00,6.01801E+00,8.1313E-03,3.3722E+00,3.4390E-01,3.7161E+00,3.215E+00,1.468E-01
9.030794E+00,6.01610E+00,7.0314E-03,2.7278E+00,3.3056E-01,3.0584E+00,2.600E+00,1.373E-01
9.653919E+00,6.01439E+00,6.0514E-03,2.1961E+00,3.1815E-01,2.5142E+00,2.093E+00,1.284E-01
2.011215E+01,6.00392E+00,1.1609E-03,2.0222E-01,2.2959E-01,4.3181E-01,1.924E-01,6.165E-02
2.149988E+01,6.00348E+00,9.9909E-04,1.6281E-01,2.2464E-01,3.8745E-01,1.549E-01,5.767E-02
2.298338E+01,6.00308E+00,8.5985E-04,1.3107E-01,2.2002E-01,3.5109E-01,1.247E-01,5.395E-02
2.456923E+01,6.00272E+00,7.4001E-04,1.0552E-01,2.1568E-01,3.2120E-01,1.004E-01,5.046E-02
2.626450E+01,6.00241E+00,6.3687E-04,8.4954E-02,2.1159E-01,2.9654E-01,8.079E-02,4.721E-02
2.807676E+01,6.00213E+00,5.4642E-04,6.8184E-02,2.0772E-01,2.7590E-01,6.483E-02,4.416E-02
3.001405E+01,6.00189E+00,4.6835E-04,5.4669E-02,2.0404E-01,2.5871E-01,5.197E-02,4.131E-02
3.208502E+01,6.00167E+00,4.0143E-04,4.3834E-02,2.0052E-01,2.4435E-01,4.166E-02,3.864E-02
3.429889E+01,6.00148E+00,3.4407E-04,3.5146E-02,1.9714E-01,2.3229E-01,3.339E-02,3.615E-02
3.666551E+01,6.00130E+00,2.9491E-04,2.8180E-02,1.9388E-01,2.2206E-01,2.677E-02,3.381E-02
3.919543E+01,6.00115E+00,2.5277E-04,2.2594E-02,1.9071E-01,2.1330E-01,2.146E-02,3.163E-02
4.189992E+01,6.00102E+00,2.1666E-04,1.8116E-02,1.8761E-01,2.0573E-01,1.720E-02,2.959E-02
4.479101E+01,6.00090E+00,1.8570E-04,1.4525E-02,1.8458E-01,1.9910E-01,1.379E-02,2.768E-02
4.788159E+01,6.00079E+00,1.5917E-04,1.1646E-02,1.8160E-01,1.9325E-01,1.105E-02,2.589E-02
5.118542E+01,6.00070E+00,1.3643E-04,9.3381E-03,1.7865E-01,1.8799E-01,8.861E-03,2.422E-02
5.471721E+01,6.00062E+00,1.1694E-04,7.4873E-03,1.7573E-01,1.8322E-01,7.103E-03,2.266E-02
5.849270E+01,6.00054E+00,1.0023E-04,6.0033E-03,1.7283E-01,1.7883E-01,5.694E-03,2.120E-02
6.252870E+01,6.00048E+00,8.5909E-05,4.8135E-03,1.6993E-01,1.7474E-01,4.564E-03,1.983E-02
6.684318E+01,6.00042E+00,7.3635E-05,3.8595E-03,1.6705E-01,1.7091E-01,3.659E-03,1.855E-02
7.145536E+01,6.00037E+00,6.3115E-05,3.0945E-03,1.6417E-01,1.6726E-01,2.933E-03,1.735E-02
7.638578E+01,6.00033E+00,5.4098E-05,2.4812E-03,1.6128E-01,1.6376E-01,2.351E-03,1.623E-02
8.165640E+01,6.00029E+00,4.6381E-05,1.9900E-03,1.5840E-01,1.6039E-01,1.885E-03,1.518E-02
8.729069E+01,6.00025E+00,3.9791E-05,1.5970E-03,1.5551E-01,1.5711E-01,1.513E-03,1.420E-02
9.331374E+01,6.00022E+00,3.4136E-05,1.2816E-03,1.5262E-01,1.5390E-01,1.214E-03,1.329E-02
9.975239E+01,6.00020E+00,2.9285E-05,1.0286E-03,1.4973E-01,1.5076E-01,9.737E-04,1.243E-02
2.078156E+02,6.00005E+00,5.4258E-06,9.1472E-05,1.1834E-01,1.1843E-01,8.641E-05,5.966E-03
2.221548E+02,6.00004E+00,4.6549E-06,7.3409E-05,1.1560E-01,1.1567E-01,6.933E-05,5.581E-03
2.374835E+02,6.00004E+00,3.9934E-06,5.8913E-05,1.1290E-01,1.1296E-01,5.563E-05,5.221E-03
2.538699E+02,6.00003E+00,3.4260E-06,4.7280E-05,1.1022E-01,1.1027E-01,4.463E-05,4.884E-03
2.713869E+02,6.00003E+00,2.9392E-06,3.7944E-05,1.0759E-01,1.0763E-01,3.581E-05,4.569E-03
2.901126E+02,6.00003E+00,2.5216E-06,3.0451E-05,1.0500E-01,1.0503E-01,2.873E-05,4.274E-03
3.101304E+02,6.00002E+00,2.1633E-06,2.4438E-05,1.0245E-01,1.0247E-01,2.306E-05,3.998E-03
3.315294E+02,6.00002E+00,1.8559E-06,1.9612E-05,9.9939E-02,9.9959E-02,1.850E-05,3.740E-03
3.544049E+02,6.00002E+00,1.5922E-06,1.5740E-05,9.7479E-02,9.7495E-02,1.484E-05,3.498E-03
3.788588E+02,6.00001E+00,1.3660E-06,1.2632E-05,9.5068E-02,9.5081E-02,1.191E-05,3.273E-03
4.050001E+02,6.00001E+00,1.1719E-06,1.0137E-05,9.2706E-02,9.2716E-02,9.556E-06,3.061E-03
4.329451E+02,6.00001E+00,1.0054E-06,8.1356E-06,9.0395E-02,9.0403E-02,7.667E-06,2.864E-03
