E [keV],f1 [e atom⁻¹],f2 [e atom⁻¹],μ/ρ [cm² g⁻¹],σ/ρ [cm² g⁻¹],μ/ρ total [cm² g⁻¹],μ/ρ_K [cm² g⁻¹],λ [nm]
2.0004844E+00,6.50079E+01,1.4748E+01,1.3911E+03,1.1812E+01,1.4030E+03,0.000E-01,6.198E-01
2.0104868E+00,6.49860E+01,1.4677E+01,1.3776E+03,1.1811E+01,1.3894E+03,0.000E-01,6.167E-01
2.0205393E+00,6.49632E+01,1.4607E+01,1.3642E+03,1.1809E+01,1.3760E+03,0.000E-01,6.136E-01
2.0306420E+00,6.49394E+01,1.4538E+01,1.3510E+03,1.1808E+01,1.3628E+03,0.000E-01,6.106E-01
2.0407952E+00,6.49146E+01,1.4469E+01,1.3378E+03,1.1806E+01,1.3496E+03,0.000E-01,6.075E-01
2.0509992E+00,6.48887E+01,1.4400E+01,1.3249E+03,1.1804E+01,1.3367E+03,0.000E-01,6.045E-01
2.0612542E+00,6.48619E+01,1.4332E+01,1.3120E+03,1.1801E+01,1.3238E+03,0.000E-01,6.015E-01
2.0715604E+00,6.48340E+01,1.4264E+01,1.2993E+03,1.1799E+01,1.3111E+03,0.000E-01,5.985E-01
2.0819182E+00,6.48050E+01,1.4197E+01,1.2868E+03,1.1796E+01,1.2986E+03,0.000E-01,5.955E-01
2.0923278E+00,6.47749E+01,1.4130E+01,1.2744E+03,1.1794E+01,1.2862E+03,0.000E-01,5.926E-01
2.1027895E+00,6.47437E+01,1.4064E+01,1.2621E+03,1.1791E+01,1.2739E+03,0.000E-01,5.896E-01
2.1133034E+00,6.47114E+01,1.3998E+01,1.2499E+03,1.1787E+01,1.2617E+03,0.000E-01,5.867E-01
2.1238699E+00,6.46779E+01,1.3933E+01,1.2379E+03,1.1784E+01,1.2497E+03,0.000E-01,5.838E-01
2.1344893E+00,6.46433E+01,1.3868E+01,1.2260E+03,1.1781E+01,1.2377E+03,0.000E-01,5.809E-01
2.1451617E+00,6.46074E+01,1.3803E+01,1.2142E+03,1.1777E+01,1.2260E+03,0.000E-01,5.780E-01
2.1558875E+00,6.45702E+01,1.3739E+01,1.2025E+03,1.1773E+01,1.2143E+03,0.000E-01,5.751E-01
2.1666670E+00,6.45318E+01,1.3675E+01,1.1910E+03,1.1769E+01,1.2028E+03,0.000E-01,5.722E-01
2.1775003E+00,6.44921E+01,1.3612E+01,1.1796E+03,1.1764E+01,1.1914E+03,0.000E-01,5.694E-01
2.1883878E+00,6.44511E+01,1.3549E+01,1.1683E+03,1.1760E+01,1.1801E+03,0.000E-01,5.666E-01
2.1993297E+00,6.44086E+01,1.3487E+01,1.1572E+03,1.1755E+01,1.1689E+03,0.000E-01,5.637E-01
2.2103264E+00,6.43648E+01,1.3425E+01,1.1461E+03,1.1750E+01,1.1579E+03,0.000E-01,5.609E-01
2.2213780E+00,6.43196E+01,1.3363E+01,1.1352E+03,1.1745E+01,1.1469E+03,0.000E-01,5.581E-01
2.2324849E+00,6.42728E+01,1.3302E+01,1.1244E+03,1.1740E+01,1.1361E+03,0.000E-01,5.554E-01
2.2436473E+00,6.42245E+01,1.3241E+01,1.1137E+03,1.1735E+01,1.1254E+03,0.000E-01,5.526E-01
2.2548656E+00,6.41747E+01,1.3181E+01,1.1031E+03,1.1729E+01,1.1148E+03,0.000E-01,5.499E-01
2.2661399E+00,6.41233E+01,1.3121E+01,1.0926E+03,1.1723E+01,1.1043E+03,0.000E-01,5.471E-01
2.2774706E+00,6.40702E+01,1.3062E+01,1.0822E+03,1.1717E+01,1.0939E+03,0.000E-01,5.444E-01
2.2888579E+00,6.40154E+01,1.3003E+01,1.0720E+03,1.1711E+01,1.0837E+03,0.000E-01,5.417E-01
2.3003022E+00,6.39588E+01,1.2944E+01,1.0618E+03,1.1705E+01,1.0735E+03,0.000E-01,5.390E-01
2.3118037E+00,6.38966E+01,1.2883E+01,1.0515E+03,1.1698E+01,1.0632E+03,0.000E-01,5.363E-01
2.3233628E+00,6.38359E+01,1.2816E+01,1.0409E+03,1.1691E+01,1.0526E+03,0.000E-01,5.336E-01
2.3349796E+00,6.37726E+01,1.2750E+01,1.0304E+03,1.1684E+01,1.0421E+03,0.000E-01,5.310E-01
2.3466545E+00,6.37066E+01,1.2684E+01,1.0200E+03,1.1677E+01,1.0316E+03,0.000E-01,5.283E-01
2.3583878E+00,6.36378E+01,1.2619E+01,1.0097E+03,1.1670E+01,1.0213E+03,0.000E-01,5.257E-01
2.3701797E+00,6.35662E+01,1.2554E+01,9.9948E+02,1.1663E+01,1.0111E+03,0.000E-01,5.231E-01
2.3820306E+00,6.34916E+01,1.2490E+01,9.8941E+02,1.1655E+01,1.0011E+03,0.000E-01,5.205E-01
2.3939407E+00,6.34141E+01,1.2426E+01,9.7946E+02,1.1647E+01,9.9110E+02,0.000E-01,5.179E-01
2.4059104E+00,6.33334E+01,1.2362E+01,9.6960E+02,1.1639E+01,9.8124E+02,0.000E-01,5.153E-01
2.4179400E+00,6.32495E+01,1.2297E+01,9.5969E+02,1.1631E+01,9.7132E+02,0.000E-01,5.128E-01
2.4300297E+00,6.31683E+01,1.2229E+01,9.4962E+02,1.1623E+01,9.6125E+02,0.000E-01,5.102E-01
2.4421798E+00,6.30769E+01,1.2161E+01,9.3967E+02,1.1614E+01,9.5128E+02,0.000E-01,5.077E-01
2.4543907E+00,6.29814E+01,1.2094E+01,9.2983E+02,1.1605E+01,9.4143E+02,0.000E-01,5.052E-01
2.4666627E+00,6.28818E+01,1.2027E+01,9.2009E+02,1.1596E+01,9.3169E+02,0.000E-01,5.026E-01
2.4789960E+00,6.27778E+01,1.1961E+01,9.1047E+02,1.1587E+01,9.2206E+02,0.000E-01,5.001E-01
2.4913910E+00,6.26692E+01,1.1895E+01,9.0095E+02,1.1578E+01,9.1253E+02,0.000E-01,4.977E-01
2.5038479E+00,6.25559E+01,1.1830E+01,8.9153E+02,1.1569E+01,9.0310E+02,0.000E-01,4.952E-01
2.5163672E+00,6.24376E+01,1.1764E+01,8.8220E+02,1.1559E+01,8.9376E+02,0.000E-01,4.927E-01
2.5289490E+00,6.23142E+01,1.1700E+01,8.7298E+02,1.1549E+01,8.8453E+02,0.000E-01,4.903E-01
2.5415938E+00,6.21852E+01,1.1635E+01,8.6386E+02,1.1539E+01,8.7540E+02,0.000E-01,4.878E-01
2.5543017E+00,6.20504E+01,1.1571E+01,8.5484E+02,1.1529E+01,8.6637E+02,0.000E-01,4.854E-01
2.5670732E+00,6.19096E+01,1.1508E+01,8.4592E+02,1.1519E+01,8.5744E+02,0.000E-01,4.830E-01
2.5799086E+00,6.17623E+01,1.1445E+01,8.3710E+02,1.1509E+01,8.4861E+02,0.000E-01,4.806E-01
2.5928082E+00,6.16081E+01,1.1382E+01,8.2838E+02,1.1498E+01,8.3988E+02,0.000E-01,4.782E-01
2.6057722E+00,6.14466E+01,1.1320E+01,8.1976E+02,1.1487E+01,8.3124E+02,0.000E-01,4.758E-01
2.6188011E+00,6.12773E+01,1.1258E+01,8.1123E+02,1.1476E+01,8.2271E+02,0.000E-01,4.734E-01
2.6318951E+00,6.10997E+01,1.1197E+01,8.0280E+02,1.1465E+01,8.1426E+02,0.000E-01,4.711E-01
2.6450545E+00,6.09132E+01,1.1136E+01,7.9446E+02,1.1454E+01,8.0591E+02,0.000E-01,4.687E-01
2.6582798E+00,6.07171E+01,1.1076E+01,7.8621E+02,1.1442E+01,7.9766E+02,0.000E-01,4.664E-01
2.6715712E+00,6.05106E+01,1.1016E+01,7.7806E+02,1.1431E+01,7.8949E+02,0.000E-01,4.641E-01
2.6849291E+00,6.02928E+01,1.0956E+01,7.7000E+02,1.1419E+01,7.8141E+02,0.000E-01,4.618E-01
2.6983537E+00,6.00629E+01,1.0897E+01,7.6202E+02,1.1407E+01,7.7343E+02,0.000E-01,4.595E-01
2.7118455E+00,5.98196E+01,1.0838E+01,7.5414E+02,1.1395E+01,7.6553E+02,0.000E-01,4.572E-01
2.7254047E+00,5.95617E+01,1.0779E+01,7.4634E+02,1.1383E+01,7.5772E+02,0.000E-01,4.549E-01
2.7390317E+00,5.92877E+01,1.0721E+01,7.3863E+02,1.1370E+01,7.5000E+02,0.000E-01,4.527E-01
2.7527269E+00,5.89959E+01,1.0664E+01,7.3100E+02,1.1357E+01,7.4236E+02,0.000E-01,4.504E-01
2.7664905E+00,5.86842E+01,1.0606E+01,7.2346E+02,1.1345E+01,7.3480E+02,0.000E-01,4.482E-01
2.7803230E+00,5.83502E+01,1.0550E+01,7.1600E+02,1.1332E+01,7.2733E+02,0.000E-01,4.459E-01
2.7942246E+00,5.79911E+01,1.0493E+01,7.0862E+02,1.1319E+01,7.1994E+02,0.000E-01,4.437E-01
2.8081957E+00,5.76033E+01,1.0437E+01,7.0133E+02,1.1305E+01,7.1263E+02,0.000E-01,4.415E-01
2.8222367E+00,5.71826E+01,1.0381E+01,6.9412E+02,1.1292E+01,7.0541E+02,0.000E-01,4.393E-01
2.8363479E+00,5.67236E+01,1.0326E+01,6.8698E+02,1.1278E+01,6.9826E+02,0.000E-01,4.371E-01
2.8505296E+00,5.62195E+01,1.0271E+01,6.7992E+02,1.1265E+01,6.9119E+02,0.000E-01,4.350E-01
2.8647823E+00,5.56615E+01,1.0216E+01,6.7295E+02,1.1251E+01,6.8420E+02,0.000E-01,4.328E-01
2.8791062E+00,5.50377E+01,1.0162E+01,6.6604E+02,1.1237E+01,6.7728E+02,0.000E-01,4.306E-01
2.8935017E+00,5.43319E+01,1.0108E+01,6.5922E+02,1.1222E+01,6.7044E+02,0.000E-01,4.285E-01
2.9079692E+00,5.35207E+01,1.0055E+01,6.5247E+02,1.1208E+01,6.6368E+02,0.000E-01,4.264E-01
2.9225091E+00,5.25686E+01,1.0002E+01,6.4579E+02,1.1194E+01,6.5699E+02,0.000E-01,4.242E-01
2.9371216E+00,5.14179E+01,9.9489E+00,6.3919E+02,1.1179E+01,6.5037E+02,0.000E-01,4.221E-01
2.9518072E+00,4.99695E+01,9.8965E+00,6.3266E+02,1.1164E+01,6.4382E+02,0.000E-01,4.200E-01
2.9665662E+00,4.79916E+01,9.8445E+00,6.2620E+02,1.1149E+01,6.3735E+02,0.000E-01,4.179E-01
2.9813991E+00,4.48559E+01,9.7928E+00,6.1981E+02,1.1134E+01,6.3094E+02,0.000E-01,4.159E-01
2.9963061E+00,3.61443E+01,9.7414E+00,6.1349E+02,1.1119E+01,6.2461E+02,0.000E-01,4.138E-01
2.9988482E+00,2.90598E+01,9.7327E+00,6.1243E+02,1.1116E+01,6.2354E+02,0.000E-01,4.134E-01
3.0005520E+00,2.87932E+01,2.5805E+01,1.6228E+03,1.1114E+01,1.6339E+03,0.000E-01,4.132E-01
3.0112876E+00,4.21044E+01,2.5649E+01,1.6073E+03,1.1103E+01,1.6184E+03,0.000E-01,4.117E-01
3.0263440E+00,4.61755E+01,2.5434E+01,1.5859E+03,1.1088E+01,1.5970E+03,0.000E-01,4.097E-01
3.0414758E+00,4.81844E+01,2.5220E+01,1.5647E+03,1.1072E+01,1.5758E+03,0.000E-01,4.076E-01
3.0566831E+00,4.93687E+01,2.5009E+01,1.5439E+03,1.1056E+01,1.5549E+03,0.000E-01,4.056E-01
3.0719666E+00,5.00364E+01,2.4799E+01,1.5233E+03,1.1040E+01,1.5344E+03,0.000E-01,4.036E-01
3.0873264E+00,5.02632E+01,2.4591E+01,1.5030E+03,1.1024E+01,1.5141E+03,0.000E-01,4.016E-01
3.1027630E+00,4.99701E+01,2.4385E+01,1.4830E+03,1.1008E+01,1.4941E+03,0.000E-01,3.996E-01
3.1182768E+00,4.87402E+01,2.4181E+01,1.4633E+03,1.0991E+01,1.4743E+03,0.000E-01,3.976E-01
3.1338682E+00,4.26489E+01,2.3979E+01,1.4439E+03,1.0975E+01,1.4548E+03,0.000E-01,3.956E-01
3.1352340E+00,3.97354E+01,2.3962E+01,1.4422E+03,1.0973E+01,1.4532E+03,0.000E-01,3.955E-01
3.1371659E+00,3.96606E+01,3.4572E+01,2.0795E+03,1.0971E+01,2.0905E+03,0.000E-01,3.952E-01
3.1495376E+00,4.91388E+01,3.4343E+01,2.0576E+03,1.0958E+01,2.0686E+03,0.000E-01,3.937E-01
3.1652853E+00,5.24315E+01,3.4055E+01,2.0302E+03,1.0941E+01,2.0411E+03,0.000E-01,3.917E-01
3.1811117E+00,5.44860E+01,3.3769E+01,2.0032E+03,1.0924E+01,2.0141E+03,0.000E-01,3.898E-01
3.1970172E+00,5.60404E+01,3.3486E+01,1.9765E+03,1.0907E+01,1.9874E+03,0.000E-01,3.878E-01
3.2130023E+00,5.73118E+01,3.3206E+01,1.9502E+03,1.0890E+01,1.9611E+03,0.000E-01,3.859E-01
3.2290673E+00,5.83958E+01,3.2928E+01,1.9242E+03,1.0872E+01,1.9351E+03,0.000E-01,3.840E-01
3.2452127E+00,5.93438E+01,3.2652E+01,1.8986E+03,1.0855E+01,1.9095E+03,0.000E-01,3.821E-01
3.2614387E+00,6.01871E+01,3.2377E+01,1.8732E+03,1.0837E+01,1.8841E+03,0.000E-01,3.802E-01
3.2777459E+00,6.09461E+01,3.2104E+01,1.8482E+03,1.0819E+01,1.8591E+03,0.000E-01,3.783E-01
3.2941347E+00,6.16351E+01,3.1834E+01,1.8236E+03,1.0801E+01,1.8344E+03,0.000E-01,3.764E-01
3.3106053E+00,6.22646E+01,3.1566E+01,1.7992E+03,1.0783E+01,1.8100E+03,0.000E-01,3.745E-01
3.3271584E+00,6.28423E+01,3.1301E+01,1.7752E+03,1.0765E+01,1.7860E+03,0.000E-01,3.726E-01
3.3437941E+00,6.33742E+01,3.1038E+01,1.7515E+03,1.0746E+01,1.7623E+03,0.000E-01,3.708E-01
3.3605131E+00,6.38649E+01,3.0777E+01,1.7282E+03,1.0728E+01,1.7389E+03,0.000E-01,3.689E-01
3.3773157E+00,6.43180E+01,3.0518E+01,1.7051E+03,1.0709E+01,1.7159E+03,0.000E-01,3.671E-01
3.3942023E+00,6.47364E+01,3.0262E+01,1.6824E+03,1.0691E+01,1.6931E+03,0.000E-01,3.653E-01
3.4111733E+00,6.51221E+01,3.0008E+01,1.6600E+03,1.0672E+01,1.6707E+03,0.000E-01,3.635E-01
3.4282291E+00,6.54767E+01,2.9756E+01,1.6379E+03,1.0653E+01,1.6485E+03,0.000E-01,3.617E-01
3.4453703E+00,6.58011E+01,2.9507E+01,1.6161E+03,1.0634E+01,1.6267E+03,0.000E-01,3.599E-01
3.4625971E+00,6.60957E+01,2.9259E+01,1.5945E+03,1.0614E+01,1.6052E+03,0.000E-01,3.581E-01
3.4799101E+00,6.63603E+01,2.9014E+01,1.5733E+03,1.0595E+01,1.5839E+03,0.000E-01,3.563E-01
3.4973097E+00,6.65938E+01,2.8771E+01,1.5524E+03,1.0575E+01,1.5630E+03,0.000E-01,3.545E-01
3.5147962E+00,6.67943E+01,2.8530E+01,1.5317E+03,1.0556E+01,1.5423E+03,0.000E-01,3.527E-01
3.5323702E+00,6.69584E+01,2.8291E+01,1.5113E+03,1.0536E+01,1.5219E+03,0.000E-01,3.510E-01
3.5500321E+00,6.70806E+01,2.8055E+01,1.4912E+03,1.0516E+01,1.5018E+03,0.000E-01,3.492E-01
3.5677822E+00,6.71519E+01,2.7820E+01,1.4714E+03,1.0496E+01,1.4819E+03,0.000E-01,3.475E-01
3.5856211E+00,6.71568E+01,2.7587E+01,1.4518E+03,1.0476E+01,1.4623E+03,0.000E-01,3.458E-01
3.6035492E+00,6.70666E+01,2.7357E+01,1.4326E+03,1.0456E+01,1.4430E+03,0.000E-01,3.441E-01
3.6215670E+00,6.68193E+01,2.7128E+01,1.4135E+03,1.0436E+01,1.4240E+03,0.000E-01,3.423E-01
3.6396748E+00,6.62394E+01,2.6902E+01,1.3947E+03,1.0415E+01,1.4052E+03,0.000E-01,3.406E-01
3.6578732E+00,6.42154E+01,2.6677E+01,1.3762E+03,1.0395E+01,1.3866E+03,0.000E-01,3.390E-01
3.6585679E+00,6.40033E+01,2.6669E+01,1.3755E+03,1.0394E+01,1.3859E+03,0.000E-01,3.389E-01
3.6674323E+00,6.40829E+01,3.1386E+01,1.6149E+03,1.0384E+01,1.6253E+03,0.000E-01,3.381E-01
3.6761626E+00,6.59033E+01,3.1255E+01,1.6043E+03,1.0374E+01,1.6147E+03,0.000E-01,3.373E-01
3.6945434E+00,6.75280E+01,3.0981E+01,1.5824E+03,1.0353E+01,1.5927E+03,0.000E-01,3.356E-01
3.7130161E+00,6.84959E+01,3.0711E+01,1.5608E+03,1.0332E+01,1.5711E+03,0.000E-01,3.339E-01
3.7315812E+00,6.92238E+01,3.0442E+01,1.5394E+03,1.0311E+01,1.5497E+03,0.000E-01,3.323E-01
3.7502391E+00,6.98219E+01,3.0176E+01,1.5184E+03,1.0290E+01,1.5287E+03,0.000E-01,3.306E-01
3.7689903E+00,7.03363E+01,2.9913E+01,1.4976E+03,1.0269E+01,1.5079E+03,0.000E-01,3.290E-01
3.7878352E+00,7.07903E+01,2.9652E+01,1.4772E+03,1.0248E+01,1.4874E+03,0.000E-01,3.273E-01
3.8067744E+00,7.11976E+01,2.9393E+01,1.4570E+03,1.0226E+01,1.4673E+03,0.000E-01,3.257E-01
3.8258083E+00,7.15662E+01,2.9137E+01,1.4371E+03,1.0205E+01,1.4473E+03,0.000E-01,3.241E-01
3.8449373E+00,7.19002E+01,2.8885E+01,1.4176E+03,1.0183E+01,1.4278E+03,0.000E-01,3.225E-01
3.8641620E+00,7.22091E+01,2.8652E+01,1.3992E+03,1.0161E+01,1.4093E+03,0.000E-01,3.209E-01
3.8834828E+00,7.25011E+01,2.8422E+01,1.3810E+03,1.0140E+01,1.3912E+03,0.000E-01,3.193E-01
3.9029002E+00,7.27771E+01,2.8194E+01,1.3631E+03,1.0118E+01,1.3733E+03,0.000E-01,3.177E-01
3.9224147E+00,7.30372E+01,2.7965E+01,1.3454E+03,1.0096E+01,1.3555E+03,0.000E-01,3.161E-01
3.9420268E+00,7.32824E+01,2.7739E+01,1.3278E+03,1.0073E+01,1.3379E+03,0.000E-01,3.145E-01
3.9617369E+00,7.35138E+01,2.7515E+01,1.3106E+03,1.0051E+01,1.3206E+03,0.000E-01,3.130E-01
3.9815456E+00,7.37322E+01,2.7294E+01,1.2936E+03,1.0029E+01,1.3036E+03,0.000E-01,3.114E-01
4.0014533E+00,7.39385E+01,2.7076E+01,1.2768E+03,1.0006E+01,1.2868E+03,0.000E-01,3.098E-01
4.0214606E+00,7.41333E+01,2.6860E+01,1.2604E+03,9.9840E+00,1.2703E+03,0.000E-01,3.083E-01
4.0415679E+00,7.43170E+01,2.6647E+01,1.2441E+03,9.9613E+00,1.2541E+03,0.000E-01,3.068E-01
4.0617757E+00,7.44900E+01,2.6436E+01,1.2282E+03,9.9386E+00,1.2381E+03,0.000E-01,3.052E-01
4.0820846E+00,7.46524E+01,2.6227E+01,1.2124E+03,9.9158E+00,1.2223E+03,0.000E-01,3.037E-01
4.1024950E+00,7.48034E+01,2.6018E+01,1.1967E+03,9.8929E+00,1.2066E+03,0.000E-01,3.022E-01
4.1230075E+00,7.49424E+01,2.5811E+01,1.1813E+03,9.8699E+00,1.1912E+03,0.000E-01,3.007E-01
4.1436226E+00,7.50692E+01,2.5607E+01,1.1661E+03,9.8469E+00,1.1760E+03,0.000E-01,2.992E-01
4.1643407E+00,7.51826E+01,2.5405E+01,1.1512E+03,9.8237E+00,1.1610E+03,0.000E-01,2.977E-01
4.1851624E+00,7.52813E+01,2.5205E+01,1.1364E+03,9.8005E+00,1.1462E+03,0.000E-01,2.962E-01
4.2060882E+00,7.53628E+01,2.5007E+01,1.1219E+03,9.7771E+00,1.1317E+03,0.000E-01,2.948E-01
4.2271186E+00,7.54230E+01,2.4811E+01,1.1076E+03,9.7537E+00,1.1173E+03,0.000E-01,2.933E-01
4.2482542E+00,7.54545E+01,2.4617E+01,1.0934E+03,9.7302E+00,1.1032E+03,0.000E-01,2.918E-01
4.2694955E+00,7.54430E+01,2.4425E+01,1.0795E+03,9.7066E+00,1.0892E+03,0.000E-01,2.904E-01
4.2908430E+00,7.53525E+01,2.4235E+01,1.0658E+03,9.6829E+00,1.0755E+03,0.000E-01,2.890E-01
4.3122972E+00,7.50426E+01,2.4047E+01,1.0523E+03,9.6592E+00,1.0619E+03,0.000E-01,2.875E-01
4.3208125E+00,7.46680E+01,2.3973E+01,1.0470E+03,9.6498E+00,1.0566E+03,0.000E-01,2.869E-01
4.3331878E+00,7.47152E+01,2.5411E+01,1.1066E+03,9.6361E+00,1.1162E+03,0.000E-01,2.861E-01
4.3338587E+00,7.47698E+01,2.5405E+01,1.1062E+03,9.6353E+00,1.1158E+03,0.000E-01,2.861E-01
4.3555280E+00,7.55931E+01,2.5219E+01,1.0926E+03,9.6114E+00,1.1022E+03,0.000E-01,2.847E-01
4.3773056E+00,7.59883E+01,2.5035E+01,1.0792E+03,9.5874E+00,1.0888E+03,0.000E-01,2.832E-01
4.3991921E+00,7.62762E+01,2.4852E+01,1.0660E+03,9.5634E+00,1.0756E+03,0.000E-01,2.818E-01
4.4211881E+00,7.65112E+01,2.4671E+01,1.0530E+03,9.5392E+00,1.0625E+03,0.000E-01,2.804E-01
4.4432940E+00,7.67127E+01,2.4491E+01,1.0401E+03,9.5150E+00,1.0496E+03,0.000E-01,2.790E-01
4.4655105E+00,7.68894E+01,2.4314E+01,1.0274E+03,9.4907E+00,1.0369E+03,0.000E-01,2.776E-01
4.4878381E+00,7.70459E+01,2.4138E+01,1.0149E+03,9.4664E+00,1.0244E+03,0.000E-01,2.763E-01
4.5102772E+00,7.71840E+01,2.3962E+01,1.0025E+03,9.4419E+00,1.0120E+03,0.000E-01,2.749E-01
4.5328286E+00,7.73038E+01,2.3789E+01,9.9032E+02,9.4174E+00,9.9974E+02,0.000E-01,2.735E-01
4.5554928E+00,7.74031E+01,2.3617E+01,9.7826E+02,9.3928E+00,9.8765E+02,0.000E-01,2.722E-01
4.5782702E+00,7.74765E+01,2.3446E+01,9.6636E+02,9.3682E+00,9.7573E+02,0.000E-01,2.708E-01
4.6011616E+00,7.75107E+01,2.3277E+01,9.5462E+02,9.3435E+00,9.6396E+02,0.000E-01,2.695E-01
4.6241674E+00,7.74652E+01,2.3109E+01,9.4302E+02,9.3187E+00,9.5234E+02,0.000E-01,2.681E-01
4.6423238E+00,7.72379E+01,2.2978E+01,9.3401E+02,9.2992E+00,9.4331E+02,0.000E-01,2.671E-01
4.6472882E+00,7.70364E+01,2.2942E+01,9.3156E+02,9.2938E+00,9.4086E+02,0.000E-01,2.668E-01
4.6616761E+00,7.73474E+01,2.3853E+01,9.6553E+02,9.2784E+00,9.7481E+02,0.000E-01,2.660E-01
4.6705247E+00,7.76095E+01,2.3789E+01,9.6115E+02,9.2689E+00,9.7042E+02,0.000E-01,2.655E-01
4.6938773E+00,7.80081E+01,2.3624E+01,9.4973E+02,9.2439E+00,9.5897E+02,0.000E-01,2.641E-01
4.7173467E+00,7.82833E+01,2.3460E+01,9.3845E+02,9.2189E+00,9.4767E+02,0.000E-01,2.628E-01
4.7409334E+00,7.85112E+01,2.3298E+01,9.2731E+02,9.1938E+00,9.3650E+02,0.000E-01,2.615E-01
4.7646381E+00,7.87131E+01,2.3136E+01,9.1628E+02,9.1686E+00,9.2545E+02,0.000E-01,2.602E-01
4.7884613E+00,7.88967E+01,2.2970E+01,9.0518E+02,9.1434E+00,9.1433E+02,0.000E-01,2.589E-01
4.8124036E+00,7.90663E+01,2.2805E+01,8.9422E+02,9.1181E+00,9.0334E+02,0.000E-01,2.576E-01
4.8364656E+00,7.92252E+01,2.2642E+01,8.8339E+02,9.0928E+00,8.9248E+02,0.000E-01,2.564E-01
4.8606479E+00,7.93752E+01,2.2479E+01,8.7269E+02,9.0674E+00,8.8176E+02,0.000E-01,2.551E-01
4.8849512E+00,7.95178E+01,2.2318E+01,8.6213E+02,9.0419E+00,8.7117E+02,0.000E-01,2.538E-01
4.9093759E+00,7.96539E+01,2.2158E+01,8.5168E+02,9.0164E+00,8.6070E+02,0.000E-01,2.525E-01
4.9339228E+00,7.97842E+01,2.1999E+01,8.4136E+02,8.9909E+00,8.5035E+02,0.000E-01,2.513E-01
4.9585924E+00,7.99094E+01,2.1841E+01,8.3117E+02,8.9652E+00,8.4014E+02,0.000E-01,2.500E-01
4.9833854E+00,8.00298E+01,2.1684E+01,8.2110E+02,8.9396E+00,8.3004E+02,0.000E-01,2.488E-01
5.0083023E+00,8.01459E+01,2.1529E+01,8.1115E+02,8.9138E+00,8.2007E+02,0.000E-01,2.476E-01
5.0333438E+00,8.02581E+01,2.1374E+01,8.0132E+02,8.8881E+00,8.1020E+02,0.000E-01,2.463E-01
5.0585105E+00,8.03665E+01,2.1220E+01,7.9160E+02,8.8623E+00,8.0046E+02,0.000E-01,2.451E-01
5.0838031E+00,8.04715E+01,2.1068E+01,7.8201E+02,8.8364E+00,7.9084E+02,0.000E-01,2.439E-01
5.1092221E+00,8.05732E+01,2.0917E+01,7.7253E+02,8.8105E+00,7.8134E+02,0.000E-01,2.427E-01
5.1347682E+00,8.06718E+01,2.0767E+01,7.6317E+02,8.7845E+00,7.7195E+02,0.000E-01,2.415E-01
5.1604421E+00,8.07675E+01,2.0618E+01,7.5392E+02,8.7585E+00,7.6268E+02,0.000E-01,2.403E-01
5.1862443E+00,8.08605E+01,2.0470E+01,7.4478E+02,8.7324E+00,7.5352E+02,0.000E-01,2.391E-01
5.2121755E+00,8.09508E+01,2.0323E+01,7.3576E+02,8.7063E+00,7.4447E+02,0.000E-01,2.379E-01
5.2382364E+00,8.10386E+01,2.0177E+01,7.2685E+02,8.6802E+00,7.3553E+02,0.000E-01,2.367E-01
5.2644276E+00,8.11240E+01,2.0032E+01,7.1805E+02,8.6540E+00,7.2670E+02,0.000E-01,2.355E-01
5.2907497E+00,8.12071E+01,1.9889E+01,7.0935E+02,8.6278E+00,7.1798E+02,0.000E-01,2.343E-01
5.3172034E+00,8.12880E+01,1.9746E+01,7.0076E+02,8.6016E+00,7.0936E+02,0.000E-01,2.332E-01
5.3437895E+00,8.13668E+01,1.9605E+01,6.9228E+02,8.5753E+00,7.0086E+02,0.000E-01,2.320E-01
5.3705084E+00,8.14436E+01,1.9464E+01,6.8390E+02,8.5489E+00,6.9245E+02,0.000E-01,2.309E-01
5.3973609E+00,8.15184E+01,1.9325E+01,6.7563E+02,8.5225E+00,6.8415E+02,0.000E-01,2.297E-01
5.4243477E+00,8.15914E+01,1.9186E+01,6.6745E+02,8.4961E+00,6.7595E+02,0.000E-01,2.286E-01
5.4514695E+00,8.16625E+01,1.9049E+01,6.5938E+02,8.4697E+00,6.6785E+02,0.000E-01,2.274E-01
5.4787268E+00,8.17320E+01,1.8913E+01,6.5141E+02,8.4432E+00,6.5985E+02,0.000E-01,2.263E-01
5.5061205E+00,8.17998E+01,1.8778E+01,6.4353E+02,8.4167E+00,6.5195E+02,0.000E-01,2.252E-01
5.5336511E+00,8.18660E+01,1.8643E+01,6.3575E+02,8.3902E+00,6.4414E+02,0.000E-01,2.241E-01
5.5613193E+00,8.19308E+01,1.8510E+01,6.2807E+02,8.3636E+00,6.3644E+02,0.000E-01,2.229E-01
5.5891259E+00,8.19942E+01,1.8378E+01,6.2049E+02,8.3370E+00,6.2882E+02,0.000E-01,2.218E-01
5.6170716E+00,8.20563E+01,1.8247E+01,6.1299E+02,8.3104E+00,6.2130E+02,0.000E-01,2.207E-01
5.6451569E+00,8.21170E+01,1.8116E+01,6.0555E+02,8.2837E+00,6.1383E+02,0.000E-01,2.196E-01
5.6733827E+00,8.21760E+01,1.7985E+01,5.9818E+02,8.2570E+00,6.0644E+02,0.000E-01,2.185E-01
5.7017496E+00,8.22334E+01,1.7855E+01,5.9090E+02,8.2303E+00,5.9913E+02,0.000E-01,2.174E-01
