E [keV],f1 [e atom⁻¹],f2 [e atom⁻¹],μ/ρ [cm² g⁻¹],σ/ρ [cm² g⁻¹],μ/ρ total [cm² g⁻¹],μ/ρ_K [cm² g⁻¹],λ [nm]
2.0035635E+00,5.06968E+01,3.0722E+01,3.7289E+03,1.0060E+01,3.7389E+03,0.000E-01,6.188E-01
2.0135813E+00,5.11310E+01,3.0461E+01,3.6788E+03,1.0056E+01,3.6889E+03,0.000E-01,6.157E-01
2.0236492E+00,5.15135E+01,3.0202E+01,3.6294E+03,1.0051E+01,3.6395E+03,0.000E-01,6.127E-01
2.0337675E+00,5.18530E+01,2.9946E+01,3.5808E+03,1.0047E+01,3.5908E+03,0.000E-01,6.096E-01
2.0439363E+00,5.21534E+01,2.9692E+01,3.5327E+03,1.0042E+01,3.5428E+03,0.000E-01,6.066E-01
2.0541560E+00,5.24207E+01,2.9461E+01,3.4878E+03,1.0038E+01,3.4978E+03,0.000E-01,6.036E-01
2.0644268E+00,5.26687E+01,2.9237E+01,3.4440E+03,1.0033E+01,3.4540E+03,0.000E-01,6.006E-01
2.0747489E+00,5.28970E+01,2.9016E+01,3.4010E+03,1.0028E+01,3.4110E+03,0.000E-01,5.976E-01
2.0851227E+00,5.31051E+01,2.8799E+01,3.3587E+03,1.0023E+01,3.3687E+03,0.000E-01,5.946E-01
2.0955483E+00,5.32923E+01,2.8584E+01,3.3171E+03,1.0017E+01,3.3271E+03,0.000E-01,5.917E-01
2.1060260E+00,5.34572E+01,2.8373E+01,3.2762E+03,1.0012E+01,3.2862E+03,0.000E-01,5.887E-01
2.1165562E+00,5.35967E+01,2.8164E+01,3.2359E+03,1.0006E+01,3.2459E+03,0.000E-01,5.858E-01
2.1271389E+00,5.37051E+01,2.7958E+01,3.1963E+03,1.0001E+01,3.2063E+03,0.000E-01,5.829E-01
2.1377746E+00,5.37715E+01,2.7755E+01,3.1573E+03,9.9946E+00,3.1673E+03,0.000E-01,5.800E-01
2.1484635E+00,5.37716E+01,2.7554E+01,3.1189E+03,9.9886E+00,3.1289E+03,0.000E-01,5.771E-01
2.1592058E+00,5.36356E+01,2.7356E+01,3.0810E+03,9.9823E+00,3.0910E+03,0.000E-01,5.742E-01
2.1700018E+00,5.29164E+01,2.7161E+01,3.0438E+03,9.9760E+00,3.0538E+03,0.000E-01,5.714E-01
2.1704360E+00,5.28293E+01,2.7153E+01,3.0423E+03,9.9757E+00,3.0523E+03,0.000E-01,5.712E-01
2.1755642E+00,5.29028E+01,2.8982E+01,3.2396E+03,9.9726E+00,3.2495E+03,0.000E-01,5.699E-01
2.1808519E+00,5.36916E+01,2.8875E+01,3.2198E+03,9.9694E+00,3.2298E+03,0.000E-01,5.685E-01
2.1917561E+00,5.44223E+01,2.8658E+01,3.1797E+03,9.9628E+00,3.1896E+03,0.000E-01,5.657E-01
2.2027149E+00,5.48883E+01,2.8443E+01,3.1401E+03,9.9559E+00,3.1501E+03,0.000E-01,5.629E-01
2.2137285E+00,5.52548E+01,2.8230E+01,3.1011E+03,9.9490E+00,3.1111E+03,0.000E-01,5.601E-01
2.2247971E+00,5.55658E+01,2.8020E+01,3.0628E+03,9.9418E+00,3.0727E+03,0.000E-01,5.573E-01
2.2359211E+00,5.58396E+01,2.7812E+01,3.0249E+03,9.9346E+00,3.0349E+03,0.000E-01,5.545E-01
2.2471007E+00,5.60852E+01,2.7607E+01,2.9876E+03,9.9271E+00,2.9976E+03,0.000E-01,5.518E-01
2.2583362E+00,5.63078E+01,2.7404E+01,2.9509E+03,9.9196E+00,2.9608E+03,0.000E-01,5.490E-01
2.2696279E+00,5.65101E+01,2.7203E+01,2.9147E+03,9.9119E+00,2.9246E+03,0.000E-01,5.463E-01
2.2809760E+00,5.66927E+01,2.7005E+01,2.8791E+03,9.9040E+00,2.8890E+03,0.000E-01,5.436E-01
2.2923809E+00,5.68603E+01,2.6821E+01,2.8453E+03,9.8960E+00,2.8552E+03,0.000E-01,5.409E-01
2.3038428E+00,5.70170E+01,2.6640E+01,2.8120E+03,9.8878E+00,2.8219E+03,0.000E-01,5.382E-01
2.3153620E+00,5.71615E+01,2.6461E+01,2.7792E+03,9.8795E+00,2.7891E+03,0.000E-01,5.355E-01
2.3269388E+00,5.72923E+01,2.6284E+01,2.7469E+03,9.8711E+00,2.7568E+03,0.000E-01,5.328E-01
2.3385735E+00,5.74073E+01,2.6110E+01,2.7151E+03,9.8625E+00,2.7250E+03,0.000E-01,5.302E-01
2.3502664E+00,5.75023E+01,2.5938E+01,2.6838E+03,9.8538E+00,2.6937E+03,0.000E-01,5.275E-01
2.3620177E+00,5.75690E+01,2.5768E+01,2.6530E+03,9.8449E+00,2.6628E+03,0.000E-01,5.249E-01
2.3738278E+00,5.75888E+01,2.5600E+01,2.6226E+03,9.8359E+00,2.6324E+03,0.000E-01,5.223E-01
2.3856970E+00,5.75021E+01,2.5434E+01,2.5926E+03,9.8267E+00,2.6024E+03,0.000E-01,5.197E-01
2.3931119E+00,5.72620E+01,2.5331E+01,2.5741E+03,9.8210E+00,2.5839E+03,0.000E-01,5.181E-01
2.3976254E+00,5.64412E+01,2.5270E+01,2.5630E+03,9.8175E+00,2.5728E+03,0.000E-01,5.171E-01
2.4030879E+00,5.73875E+01,2.6372E+01,2.6687E+03,9.8132E+00,2.6785E+03,0.000E-01,5.159E-01
2.4096136E+00,5.77872E+01,2.6280E+01,2.6523E+03,9.8080E+00,2.6621E+03,0.000E-01,5.145E-01
2.4216616E+00,5.82101E+01,2.6114E+01,2.6224E+03,9.7984E+00,2.6322E+03,0.000E-01,5.120E-01
2.4337699E+00,5.85158E+01,2.5950E+01,2.5929E+03,9.7887E+00,2.6027E+03,0.000E-01,5.094E-01
2.4459388E+00,5.87724E+01,2.5786E+01,2.5638E+03,9.7789E+00,2.5735E+03,0.000E-01,5.069E-01
2.4581685E+00,5.90011E+01,2.5625E+01,2.5350E+03,9.7689E+00,2.5448E+03,0.000E-01,5.044E-01
2.4704593E+00,5.92111E+01,2.5465E+01,2.5066E+03,9.7587E+00,2.5164E+03,0.000E-01,5.019E-01
2.4828116E+00,5.94075E+01,2.5306E+01,2.4786E+03,9.7485E+00,2.4884E+03,0.000E-01,4.994E-01
2.4952257E+00,5.95935E+01,2.5148E+01,2.4509E+03,9.7381E+00,2.4606E+03,0.000E-01,4.969E-01
2.5077018E+00,5.97708E+01,2.4992E+01,2.4236E+03,9.7275E+00,2.4333E+03,0.000E-01,4.944E-01
2.5202403E+00,5.99408E+01,2.4837E+01,2.3966E+03,9.7168E+00,2.4063E+03,0.000E-01,4.920E-01
2.5328415E+00,6.01056E+01,2.4685E+01,2.3701E+03,9.7060E+00,2.3798E+03,0.000E-01,4.895E-01
2.5455057E+00,6.02653E+01,2.4530E+01,2.3434E+03,9.6951E+00,2.3531E+03,0.000E-01,4.871E-01
2.5582333E+00,6.04194E+01,2.4375E+01,2.3170E+03,9.6840E+00,2.3267E+03,0.000E-01,4.846E-01
2.5710244E+00,6.05687E+01,2.4221E+01,2.2909E+03,9.6728E+00,2.3006E+03,0.000E-01,4.822E-01
2.5838796E+00,6.07135E+01,2.4068E+01,2.2652E+03,9.6614E+00,2.2748E+03,0.000E-01,4.798E-01
2.5967990E+00,6.08544E+01,2.3916E+01,2.2397E+03,9.6499E+00,2.2494E+03,0.000E-01,4.775E-01
2.6097829E+00,6.09915E+01,2.3766E+01,2.2145E+03,9.6383E+00,2.2242E+03,0.000E-01,4.751E-01
2.6228319E+00,6.11252E+01,2.3616E+01,2.1897E+03,9.6266E+00,2.1993E+03,0.000E-01,4.727E-01
2.6359460E+00,6.12558E+01,2.3468E+01,2.1651E+03,9.6147E+00,2.1747E+03,0.000E-01,4.704E-01
2.6491257E+00,6.13833E+01,2.3321E+01,2.1408E+03,9.6027E+00,2.1504E+03,0.000E-01,4.680E-01
2.6623714E+00,6.15081E+01,2.3174E+01,2.1167E+03,9.5906E+00,2.1263E+03,0.000E-01,4.657E-01
2.6756832E+00,6.16302E+01,2.3029E+01,2.0930E+03,9.5783E+00,2.1026E+03,0.000E-01,4.634E-01
2.6890617E+00,6.17499E+01,2.2884E+01,2.0695E+03,9.5659E+00,2.0791E+03,0.000E-01,4.611E-01
2.7025070E+00,6.18672E+01,2.2740E+01,2.0463E+03,9.5534E+00,2.0558E+03,0.000E-01,4.588E-01
2.7160195E+00,6.19822E+01,2.2597E+01,2.0233E+03,9.5408E+00,2.0328E+03,0.000E-01,4.565E-01
2.7295996E+00,6.20951E+01,2.2455E+01,2.0006E+03,9.5280E+00,2.0101E+03,0.000E-01,4.542E-01
2.7432476E+00,6.22059E+01,2.2314E+01,1.9781E+03,9.5151E+00,1.9876E+03,0.000E-01,4.520E-01
2.7569638E+00,6.23149E+01,2.2174E+01,1.9559E+03,9.5021E+00,1.9654E+03,0.000E-01,4.497E-01
2.7707486E+00,6.24219E+01,2.2035E+01,1.9339E+03,9.4890E+00,1.9434E+03,0.000E-01,4.475E-01
2.7846024E+00,6.25273E+01,2.1896E+01,1.9122E+03,9.4757E+00,1.9217E+03,0.000E-01,4.452E-01
2.7985254E+00,6.26309E+01,2.1758E+01,1.8907E+03,9.4623E+00,1.9002E+03,0.000E-01,4.430E-01
2.8125180E+00,6.27331E+01,2.1621E+01,1.8694E+03,9.4488E+00,1.8789E+03,0.000E-01,4.408E-01
2.8265806E+00,6.28338E+01,2.1484E+01,1.8484E+03,9.4352E+00,1.8578E+03,0.000E-01,4.386E-01
2.8407135E+00,6.29327E+01,2.1347E+01,1.8274E+03,9.4214E+00,1.8368E+03,0.000E-01,4.365E-01
2.8549171E+00,6.30297E+01,2.1210E+01,1.8067E+03,9.4076E+00,1.8161E+03,0.000E-01,4.343E-01
2.8691917E+00,6.31251E+01,2.1074E+01,1.7862E+03,9.3936E+00,1.7956E+03,0.000E-01,4.321E-01
2.8835376E+00,6.32191E+01,2.0939E+01,1.7659E+03,9.3795E+00,1.7753E+03,0.000E-01,4.300E-01
2.8979553E+00,6.33116E+01,2.0805E+01,1.7458E+03,9.3652E+00,1.7552E+03,0.000E-01,4.278E-01
2.9124451E+00,6.34028E+01,2.0671E+01,1.7260E+03,9.3509E+00,1.7353E+03,0.000E-01,4.257E-01
2.9270073E+00,6.34930E+01,2.0538E+01,1.7064E+03,9.3365E+00,1.7157E+03,0.000E-01,4.236E-01
2.9416424E+00,6.35823E+01,2.0406E+01,1.6870E+03,9.3219E+00,1.6963E+03,0.000E-01,4.215E-01
2.9563506E+00,6.36712E+01,2.0275E+01,1.6678E+03,9.3072E+00,1.6771E+03,0.000E-01,4.194E-01
2.9711323E+00,6.37602E+01,2.0145E+01,1.6489E+03,9.2924E+00,1.6582E+03,0.000E-01,4.173E-01
2.9859880E+00,6.38504E+01,2.0016E+01,1.6301E+03,9.2775E+00,1.6394E+03,0.000E-01,4.152E-01
3.0009179E+00,6.39454E+01,1.9887E+01,1.6115E+03,9.2625E+00,1.6208E+03,0.000E-01,4.132E-01
3.0159225E+00,6.40414E+01,1.9743E+01,1.5919E+03,9.2473E+00,1.6012E+03,0.000E-01,4.111E-01
3.0310021E+00,6.41313E+01,1.9600E+01,1.5725E+03,9.2321E+00,1.5818E+03,0.000E-01,4.091E-01
3.0461571E+00,6.42174E+01,1.9458E+01,1.5534E+03,9.2167E+00,1.5626E+03,0.000E-01,4.070E-01
3.0613879E+00,6.45182E+01,1.9315E+01,1.5343E+03,9.2013E+00,1.5435E+03,0.000E-01,4.050E-01
3.0766949E+00,6.45976E+01,1.9168E+01,1.5150E+03,9.1857E+00,1.5242E+03,0.000E-01,4.030E-01
3.0920783E+00,6.46741E+01,1.9023E+01,1.4961E+03,9.1700E+00,1.5052E+03,0.000E-01,4.010E-01
3.1075387E+00,6.47478E+01,1.8879E+01,1.4774E+03,9.1542E+00,1.4865E+03,0.000E-01,3.990E-01
3.1230764E+00,6.48190E+01,1.8736E+01,1.4589E+03,9.1383E+00,1.4680E+03,0.000E-01,3.970E-01
3.1386918E+00,6.48878E+01,1.8593E+01,1.4406E+03,9.1223E+00,1.4497E+03,0.000E-01,3.950E-01
3.1543853E+00,6.50964E+01,1.8452E+01,1.4225E+03,9.1062E+00,1.4316E+03,0.000E-01,3.931E-01
3.1701572E+00,6.51611E+01,1.8308E+01,1.4044E+03,9.0900E+00,1.4135E+03,0.000E-01,3.911E-01
3.1860080E+00,6.52232E+01,1.8165E+01,1.3865E+03,9.0737E+00,1.3955E+03,0.000E-01,3.892E-01
3.2019380E+00,6.52829E+01,1.8023E+01,1.3688E+03,9.0573E+00,1.3779E+03,0.000E-01,3.872E-01
3.2179477E+00,6.53402E+01,1.7882E+01,1.3514E+03,9.0408E+00,1.3604E+03,0.000E-01,3.853E-01
3.2340374E+00,6.53954E+01,1.7743E+01,1.3342E+03,9.0242E+00,1.3432E+03,0.000E-01,3.834E-01
3.2502076E+00,6.54485E+01,1.7606E+01,1.3173E+03,9.0074E+00,1.3263E+03,0.000E-01,3.815E-01
3.2664587E+00,6.54997E+01,1.7469E+01,1.3005E+03,8.9906E+00,1.3095E+03,0.000E-01,3.796E-01
3.2827910E+00,6.55490E+01,1.7334E+01,1.2840E+03,8.9737E+00,1.2930E+03,0.000E-01,3.777E-01
3.2992049E+00,6.55966E+01,1.7200E+01,1.2678E+03,8.9567E+00,1.2767E+03,0.000E-01,3.758E-01
3.3157009E+00,6.56425E+01,1.7067E+01,1.2517E+03,8.9396E+00,1.2607E+03,0.000E-01,3.739E-01
3.3322794E+00,6.56868E+01,1.6935E+01,1.2359E+03,8.9224E+00,1.2448E+03,0.000E-01,3.721E-01
3.3489408E+00,6.57295E+01,1.6805E+01,1.2203E+03,8.9051E+00,1.2292E+03,0.000E-01,3.702E-01
3.3656856E+00,6.57708E+01,1.6675E+01,1.2048E+03,8.8877E+00,1.2137E+03,0.000E-01,3.684E-01
3.3825140E+00,6.58106E+01,1.6547E+01,1.1896E+03,8.8702E+00,1.1985E+03,0.000E-01,3.665E-01
3.3994265E+00,6.58491E+01,1.6420E+01,1.1746E+03,8.8526E+00,1.1835E+03,0.000E-01,3.647E-01
3.4164237E+00,6.58863E+01,1.6294E+01,1.1598E+03,8.8349E+00,1.1687E+03,0.000E-01,3.629E-01
3.4335058E+00,6.59222E+01,1.6170E+01,1.1452E+03,8.8172E+00,1.1541E+03,0.000E-01,3.611E-01
3.4506733E+00,6.59569E+01,1.6046E+01,1.1308E+03,8.7993E+00,1.1396E+03,0.000E-01,3.593E-01
3.4679267E+00,6.59904E+01,1.5924E+01,1.1166E+03,8.7814E+00,1.1254E+03,0.000E-01,3.575E-01
3.4852663E+00,6.60228E+01,1.5802E+01,1.1025E+03,8.7633E+00,1.1113E+03,0.000E-01,3.557E-01
3.5026927E+00,6.60541E+01,1.5680E+01,1.0886E+03,8.7452E+00,1.0974E+03,0.000E-01,3.540E-01
3.5202061E+00,6.60843E+01,1.5560E+01,1.0749E+03,8.7270E+00,1.0836E+03,0.000E-01,3.522E-01
3.5378072E+00,6.61134E+01,1.5440E+01,1.0614E+03,8.7087E+00,1.0701E+03,0.000E-01,3.505E-01
3.5554962E+00,6.61415E+01,1.5322E+01,1.0480E+03,8.6903E+00,1.0567E+03,0.000E-01,3.487E-01
3.5732737E+00,6.61686E+01,1.5205E+01,1.0348E+03,8.6718E+00,1.0435E+03,0.000E-01,3.470E-01
3.5911400E+00,6.61948E+01,1.5089E+01,1.0218E+03,8.6533E+00,1.0304E+03,0.000E-01,3.453E-01
3.6090957E+00,6.62200E+01,1.4974E+01,1.0090E+03,8.6347E+00,1.0176E+03,0.000E-01,3.435E-01
3.6271412E+00,6.62443E+01,1.4860E+01,9.9630E+02,8.6159E+00,1.0049E+03,0.000E-01,3.418E-01
3.6452769E+00,6.62678E+01,1.4747E+01,9.8381E+02,8.5971E+00,9.9241E+02,0.000E-01,3.401E-01
3.6635033E+00,6.62904E+01,1.4635E+01,9.7149E+02,8.5783E+00,9.8007E+02,0.000E-01,3.384E-01
3.6818208E+00,6.63122E+01,1.4524E+01,9.5933E+02,8.5593E+00,9.6789E+02,0.000E-01,3.367E-01
3.7002299E+00,6.63332E+01,1.4415E+01,9.4734E+02,8.5403E+00,9.5588E+02,0.000E-01,3.351E-01
3.7187311E+00,6.63535E+01,1.4306E+01,9.3551E+02,8.5211E+00,9.4403E+02,0.000E-01,3.334E-01
3.7373247E+00,6.63731E+01,1.4197E+01,9.2378E+02,8.5019E+00,9.3229E+02,0.000E-01,3.317E-01
3.7560114E+00,6.63920E+01,1.4089E+01,9.1222E+02,8.4827E+00,9.2070E+02,0.000E-01,3.301E-01
3.7747914E+00,6.64102E+01,1.3983E+01,9.0080E+02,8.4633E+00,9.0927E+02,0.000E-01,3.285E-01
3.7936654E+00,6.64276E+01,1.3877E+01,8.8954E+02,8.4439E+00,8.9799E+02,0.000E-01,3.268E-01
3.8126337E+00,6.64445E+01,1.3772E+01,8.7843E+02,8.4244E+00,8.8686E+02,0.000E-01,3.252E-01
3.8316969E+00,6.64608E+01,1.3668E+01,8.6747E+02,8.4048E+00,8.7588E+02,0.000E-01,3.236E-01
3.8508554E+00,6.64764E+01,1.3565E+01,8.5666E+02,8.3852E+00,8.6504E+02,0.000E-01,3.220E-01
3.8701096E+00,6.64915E+01,1.3463E+01,8.4599E+02,8.3655E+00,8.5435E+02,0.000E-01,3.204E-01
3.8894602E+00,6.65061E+01,1.3362E+01,8.3546E+02,8.3457E+00,8.4381E+02,0.000E-01,3.188E-01
3.9089075E+00,6.66298E+01,1.3260E+01,8.2494E+02,8.3258E+00,8.3327E+02,0.000E-01,3.172E-01
3.9284520E+00,6.66439E+01,1.3156E+01,8.1442E+02,8.3059E+00,8.2273E+02,0.000E-01,3.156E-01
3.9480943E+00,6.66571E+01,1.3054E+01,8.0404E+02,8.2859E+00,8.1233E+02,0.000E-01,3.140E-01
3.9678347E+00,6.66694E+01,1.2952E+01,7.9381E+02,8.2658E+00,8.0207E+02,0.000E-01,3.125E-01
3.9876739E+00,6.66808E+01,1.2851E+01,7.8371E+02,8.2457E+00,7.9195E+02,0.000E-01,3.109E-01
4.055024E+00,6.71293E+01,1.2519E+01,7.5078E+02,8.2015E+00,7.5898E+02,0.000E+00,3.058E-01
4.334821E+00,6.71246E+01,1.1292E+01,6.3346E+02,7.9251E+00,6.4139E+02,0.000E+00,2.860E-01
4.633924E+00,6.70963E+01,1.0172E+01,5.3381E+02,7.6394E+00,5.4145E+02,0.000E+00,2.676E-01
4.953664E+00,6.69694E+01,9.1701E+00,4.5017E+02,7.3464E+00,4.5752E+02,0.000E+00,2.503E-01
5.295467E+00,6.67626E+01,8.2727E+00,3.7991E+02,7.0479E+00,3.8696E+02,0.000E+00,2.341E-01
5.660855E+00,6.65036E+01,7.4733E+00,3.2104E+02,6.7458E+00,3.2779E+02,0.000E+00,2.190E-01
6.051453E+00,6.61931E+01,6.7601E+00,2.7166E+02,6.4419E+00,2.7810E+02,0.000E+00,2.049E-01
6.469004E+00,6.58226E+01,6.1228E+00,2.3017E+02,6.1379E+00,2.3631E+02,0.000E+00,1.917E-01
6.915365E+00,6.53663E+01,5.5324E+00,1.9455E+02,5.8352E+00,2.0039E+02,0.000E+00,1.793E-01
7.392525E+00,6.47554E+01,4.9914E+00,1.6420E+02,5.5353E+00,1.6974E+02,0.000E+00,1.677E-01
7.902609E+00,6.38684E+01,4.5094E+00,1.3876E+02,5.2396E+00,1.4400E+02,0.000E+00,1.569E-01
8.447890E+00,6.22694E+01,4.0808E+00,1.1747E+02,4.9493E+00,1.2242E+02,0.000E+00,1.468E-01
8.764728E+00,6.01186E+01,3.8563E+00,1.0700E+02,4.7918E+00,1.1179E+02,0.000E+00,1.415E-01
8.898882E+00,5.71931E+01,3.7678E+00,1.0297E+02,4.7275E+00,1.0770E+02,0.000E+00,1.393E-01
8.934656E+00,5.37535E+01,3.7409E+00,1.0182E+02,4.7105E+00,1.0653E+02,0.000E+00,1.388E-01
8.988318E+00,5.72170E+01,1.0431E+01,2.8220E+02,4.6853E+00,2.8689E+02,0.000E+00,1.379E-01
9.030794E+00,5.86884E+01,1.0321E+01,2.7791E+02,4.6655E+00,2.8258E+02,0.000E+00,1.373E-01
9.122472E+00,6.02430E+01,1.0089E+01,2.6895E+02,4.6231E+00,2.7357E+02,0.000E+00,1.359E-01
9.653919E+00,6.22929E+01,8.9588E+00,2.2567E+02,4.3891E+00,2.3006E+02,0.000E+00,1.284E-01
9.778636E+00,6.20963E+01,8.7436E+00,2.1744E+02,4.3368E+00,2.2178E+02,0.000E+00,1.268E-01
9.928309E+00,6.09185E+01,8.5005E+00,2.0821E+02,4.2754E+00,2.1249E+02,0.000E+00,1.249E-01
9.968222E+00,5.92549E+01,8.4382E+00,2.0586E+02,4.2592E+00,2.1012E+02,0.000E+00,1.244E-01
2.011215E+01,7.03981E+01,4.3363E+00,5.2432E+01,1.9910E+00,5.4423E+01,0.000E+00,6.165E-02
2.149988E+01,7.04166E+01,3.8790E+00,4.3875E+01,1.8359E+00,4.5711E+01,0.000E+00,5.767E-02
2.298338E+01,7.03806E+01,3.4684E+00,3.6699E+01,1.6909E+00,3.8390E+01,0.000E+00,5.395E-02
2.456923E+01,7.03291E+01,3.1040E+00,3.0723E+01,1.5556E+00,3.2279E+01,0.000E+00,5.046E-02
2.626450E+01,7.02721E+01,2.7802E+00,2.5742E+01,1.4297E+00,2.7172E+01,0.000E+00,4.721E-02
2.807676E+01,7.02074E+01,2.4723E+00,2.1413E+01,1.3128E+00,2.2726E+01,0.000E+00,4.416E-02
3.001405E+01,7.01192E+01,2.1945E+00,1.7780E+01,1.2045E+00,1.8984E+01,0.000E+00,4.131E-02
3.208502E+01,7.00208E+01,1.9495E+00,1.4776E+01,1.1043E+00,1.5880E+01,0.000E+00,3.864E-02
3.429889E+01,6.99157E+01,1.7332E+00,1.2289E+01,1.0120E+00,1.3301E+01,0.000E+00,3.615E-02
3.666551E+01,6.98048E+01,1.5421E+00,1.0228E+01,9.2696E-01,1.1155E+01,0.000E+00,3.381E-02
3.919543E+01,6.96878E+01,1.3727E+00,8.5168E+00,8.4886E-01,9.3657E+00,0.000E+00,3.163E-02
4.189992E+01,6.95608E+01,1.2204E+00,7.0830E+00,7.7725E-01,7.8602E+00,0.000E+00,2.959E-02
4.479101E+01,6.94188E+01,1.0847E+00,5.8890E+00,7.1172E-01,6.6007E+00,0.000E+00,2.768E-02
4.788159E+01,6.92508E+01,9.6081E-01,4.8798E+00,6.5185E-01,5.5316E+00,0.000E+00,2.589E-02
5.118542E+01,6.90346E+01,8.5078E-01,4.0421E+00,5.9725E-01,4.6394E+00,0.000E+00,2.422E-02
5.471721E+01,6.87183E+01,7.5329E-01,3.3479E+00,5.4754E-01,3.8954E+00,0.000E+00,2.266E-02
5.849270E+01,6.80890E+01,6.6748E-01,2.7750E+00,5.0234E-01,3.2773E+00,0.000E+00,2.120E-02
6.010565E+01,6.74370E+01,6.3550E-01,2.5712E+00,4.8512E-01,3.0563E+00,0.000E+00,2.063E-02
6.102564E+01,6.63087E+01,6.1835E-01,2.4641E+00,4.7580E-01,2.9399E+00,0.000E+00,2.032E-02
6.127097E+01,6.49576E+01,6.1390E-01,2.4366E+00,4.7338E-01,2.9100E+00,0.000E+00,2.024E-02
6.163896E+01,6.63231E+01,3.2671E+00,1.2890E+01,4.6978E-01,1.3360E+01,1.049E+01,2.011E-02
6.252870E+01,6.75338E+01,3.1960E+00,1.2430E+01,4.6130E-01,1.2891E+01,1.013E+01,1.983E-02
6.255894E+01,6.75565E+01,3.1936E+00,1.2414E+01,4.6102E-01,1.2875E+01,1.012E+01,1.982E-02
6.684318E+01,6.89414E+01,2.8776E+00,1.0469E+01,4.2409E-01,1.0893E+01,8.558E+00,1.855E-02
7.145536E+01,6.94756E+01,2.5819E+00,8.7868E+00,3.9039E-01,9.1772E+00,7.199E+00,1.735E-02
7.638578E+01,6.97851E+01,2.3152E+00,7.3706E+00,3.5989E-01,7.7305E+00,6.051E+00,1.623E-02
8.165640E+01,6.99894E+01,2.0735E+00,6.1750E+00,3.3233E-01,6.5073E+00,5.080E+00,1.518E-02
8.729069E+01,7.01221E+01,1.8505E+00,5.1554E+00,3.0742E-01,5.4628E+00,4.252E+00,1.420E-02
9.331374E+01,7.02094E+01,1.6518E+00,4.3047E+00,2.8493E-01,4.5896E+00,3.559E+00,1.329E-02
9.975239E+01,7.02663E+01,1.4746E+00,3.5949E+00,2.6463E-01,3.8595E+00,2.978E+00,1.243E-02
2.078156E+02,7.02598E+01,4.1203E-01,4.8215E-01,1.3593E-01,6.1808E-01,4.035E-01,5.966E-03
2.221548E+02,7.02414E+01,3.6668E-01,4.0139E-01,1.2952E-01,5.3091E-01,3.359E-01,5.581E-03
2.374835E+02,7.02234E+01,3.2635E-01,3.3419E-01,1.2360E-01,4.5779E-01,2.797E-01,5.221E-03
2.538699E+02,7.02059E+01,2.9048E-01,2.7826E-01,1.1812E-01,3.9638E-01,2.329E-01,4.884E-03
2.713869E+02,7.01888E+01,2.5909E-01,2.3216E-01,1.1302E-01,3.4518E-01,1.944E-01,4.569E-03
2.901126E+02,7.01732E+01,2.3212E-01,1.9457E-01,1.0827E-01,3.0284E-01,1.631E-01,4.274E-03
3.101304E+02,7.01589E+01,2.0797E-01,1.6308E-01,1.0381E-01,2.6689E-01,1.368E-01,3.998E-03
3.315294E+02,7.01457E+01,1.8635E-01,1.3669E-01,9.9612E-02,2.3630E-01,1.148E-01,3.740E-03
3.544049E+02,7.01335E+01,1.6699E-01,1.1458E-01,9.5648E-02,2.1023E-01,9.629E-02,3.498E-03
3.788588E+02,7.01223E+01,1.4965E-01,9.6057E-02,9.1890E-02,1.8795E-01,8.078E-02,3.273E-03
4.050001E+02,7.01119E+01,1.3412E-01,8.0531E-02,8.8313E-02,1.6884E-01,6.777E-02,3.061E-03
4.329451E+02,7.01023E+01,1.2020E-01,6.7518E-02,8.4897E-02,1.5242E-01,5.686E-02,2.864E-03
