E [keV],f1 [e atom⁻¹],f2 [e atom⁻¹],μ/ρ [cm² g⁻¹],σ/ρ [cm² g⁻¹],μ/ρ total [cm² g⁻¹],μ/ρ_K [cm² g⁻¹],λ [nm]
2.0035635E+00,5.36323E+01,2.1529E+01,3.0073E+03,8.7430E+00,3.0160E+03,0.000E-01,6.188E-01
2.0135813E+00,5.37358E+01,2.1396E+01,2.9738E+03,8.7385E+00,2.9825E+03,0.000E-01,6.157E-01
2.0236492E+00,5.38370E+01,2.1263E+01,2.9406E+03,8.7338E+00,2.9493E+03,0.000E-01,6.127E-01
2.0337675E+00,5.39360E+01,2.1131E+01,2.9078E+03,8.7291E+00,2.9165E+03,0.000E-01,6.096E-01
2.0439363E+00,5.40331E+01,2.0999E+01,2.8753E+03,8.7241E+00,2.8841E+03,0.000E-01,6.066E-01
2.0541560E+00,5.41284E+01,2.0869E+01,2.8432E+03,8.7191E+00,2.8520E+03,0.000E-01,6.036E-01
2.0644268E+00,5.42218E+01,2.0739E+01,2.8115E+03,8.7139E+00,2.8202E+03,0.000E-01,6.006E-01
2.0747489E+00,5.43136E+01,2.0610E+01,2.7801E+03,8.7086E+00,2.7888E+03,0.000E-01,5.976E-01
2.0851227E+00,5.44038E+01,2.0482E+01,2.7490E+03,8.7031E+00,2.7577E+03,0.000E-01,5.946E-01
2.0955483E+00,5.44924E+01,2.0354E+01,2.7183E+03,8.6975E+00,2.7270E+03,0.000E-01,5.917E-01
2.1060260E+00,5.45796E+01,2.0227E+01,2.6879E+03,8.6918E+00,2.6966E+03,0.000E-01,5.887E-01
2.1165562E+00,5.46653E+01,2.0101E+01,2.6579E+03,8.6859E+00,2.6666E+03,0.000E-01,5.858E-01
2.1271389E+00,5.47497E+01,1.9976E+01,2.6282E+03,8.6799E+00,2.6369E+03,0.000E-01,5.829E-01
2.1377746E+00,5.48329E+01,1.9851E+01,2.5988E+03,8.6738E+00,2.6074E+03,0.000E-01,5.800E-01
2.1484635E+00,5.49148E+01,1.9727E+01,2.5697E+03,8.6676E+00,2.5784E+03,0.000E-01,5.771E-01
2.1592058E+00,5.49955E+01,1.9604E+01,2.5409E+03,8.6612E+00,2.5496E+03,0.000E-01,5.742E-01
2.1700018E+00,5.52956E+01,1.9476E+01,2.5118E+03,8.6547E+00,2.5205E+03,0.000E-01,5.714E-01
2.1808519E+00,5.53737E+01,1.9348E+01,2.4829E+03,8.6480E+00,2.4916E+03,0.000E-01,5.685E-01
2.1917561E+00,5.54502E+01,1.9221E+01,2.4544E+03,8.6413E+00,2.4630E+03,0.000E-01,5.657E-01
2.2027149E+00,5.55250E+01,1.9095E+01,2.4261E+03,8.6344E+00,2.4348E+03,0.000E-01,5.629E-01
2.2137285E+00,5.57481E+01,1.8969E+01,2.3981E+03,8.6273E+00,2.4068E+03,0.000E-01,5.601E-01
2.2247971E+00,5.58202E+01,1.8841E+01,2.3701E+03,8.6202E+00,2.3787E+03,0.000E-01,5.573E-01
2.2359211E+00,5.58904E+01,1.8713E+01,2.3423E+03,8.6129E+00,2.3509E+03,0.000E-01,5.545E-01
2.2471007E+00,5.59589E+01,1.8586E+01,2.3148E+03,8.6055E+00,2.3234E+03,0.000E-01,5.518E-01
2.2583362E+00,5.60256E+01,1.8459E+01,2.2875E+03,8.5979E+00,2.2961E+03,0.000E-01,5.490E-01
2.2696279E+00,5.60905E+01,1.8333E+01,2.2606E+03,8.5903E+00,2.2692E+03,0.000E-01,5.463E-01
2.2809760E+00,5.61536E+01,1.8208E+01,2.2340E+03,8.5825E+00,2.2426E+03,0.000E-01,5.436E-01
2.2923809E+00,5.62152E+01,1.8084E+01,2.2077E+03,8.5746E+00,2.2163E+03,0.000E-01,5.409E-01
2.3038428E+00,5.62753E+01,1.7960E+01,2.1818E+03,8.5665E+00,2.1903E+03,0.000E-01,5.382E-01
2.3153620E+00,5.63339E+01,1.7838E+01,2.1561E+03,8.5583E+00,2.1646E+03,0.000E-01,5.355E-01
2.3269388E+00,5.63910E+01,1.7716E+01,2.1307E+03,8.5501E+00,2.1392E+03,0.000E-01,5.328E-01
2.3385735E+00,5.64468E+01,1.7595E+01,2.1056E+03,8.5416E+00,2.1142E+03,0.000E-01,5.302E-01
2.3502664E+00,5.65012E+01,1.7475E+01,2.0808E+03,8.5331E+00,2.0894E+03,0.000E-01,5.275E-01
2.3620177E+00,5.65543E+01,1.7355E+01,2.0563E+03,8.5244E+00,2.0649E+03,0.000E-01,5.249E-01
2.3738278E+00,5.66062E+01,1.7237E+01,2.0321E+03,8.5156E+00,2.0407E+03,0.000E-01,5.223E-01
2.3856970E+00,5.66569E+01,1.7119E+01,2.0082E+03,8.5067E+00,2.0167E+03,0.000E-01,5.197E-01
2.3976254E+00,5.67064E+01,1.7002E+01,1.9846E+03,8.4977E+00,1.9931E+03,0.000E-01,5.171E-01
2.4096136E+00,5.67547E+01,1.6886E+01,1.9613E+03,8.4886E+00,1.9698E+03,0.000E-01,5.145E-01
2.4216616E+00,5.68020E+01,1.6771E+01,1.9382E+03,8.4793E+00,1.9467E+03,0.000E-01,5.120E-01
2.4337699E+00,5.68482E+01,1.6654E+01,1.9151E+03,8.4699E+00,1.9236E+03,0.000E-01,5.094E-01
2.4459388E+00,5.68933E+01,1.6538E+01,1.8923E+03,8.4604E+00,1.9007E+03,0.000E-01,5.069E-01
2.4581685E+00,5.69372E+01,1.6423E+01,1.8697E+03,8.4508E+00,1.8782E+03,0.000E-01,5.044E-01
2.4704593E+00,5.69801E+01,1.6308E+01,1.8474E+03,8.4410E+00,1.8559E+03,0.000E-01,5.019E-01
2.4828116E+00,5.70218E+01,1.6194E+01,1.8254E+03,8.4312E+00,1.8339E+03,0.000E-01,4.994E-01
2.4952257E+00,5.70626E+01,1.6082E+01,1.8037E+03,8.4212E+00,1.8121E+03,0.000E-01,4.969E-01
2.5077018E+00,5.71023E+01,1.5970E+01,1.7822E+03,8.4111E+00,1.7906E+03,0.000E-01,4.944E-01
2.5202403E+00,5.71411E+01,1.5858E+01,1.7610E+03,8.4009E+00,1.7694E+03,0.000E-01,4.920E-01
2.5328415E+00,5.71789E+01,1.5748E+01,1.7401E+03,8.3906E+00,1.7485E+03,0.000E-01,4.895E-01
2.5455057E+00,5.72158E+01,1.5639E+01,1.7194E+03,8.3801E+00,1.7278E+03,0.000E-01,4.871E-01
2.5582333E+00,5.72518E+01,1.5530E+01,1.6990E+03,8.3696E+00,1.7073E+03,0.000E-01,4.846E-01
2.5710244E+00,5.72869E+01,1.5422E+01,1.6788E+03,8.3589E+00,1.6871E+03,0.000E-01,4.822E-01
2.5838796E+00,5.73213E+01,1.5315E+01,1.6588E+03,8.3481E+00,1.6672E+03,0.000E-01,4.798E-01
2.5967990E+00,5.73548E+01,1.5209E+01,1.6392E+03,8.3372E+00,1.6475E+03,0.000E-01,4.775E-01
2.6097829E+00,5.73875E+01,1.5104E+01,1.6197E+03,8.3262E+00,1.6280E+03,0.000E-01,4.751E-01
2.6228319E+00,5.74195E+01,1.5000E+01,1.6005E+03,8.3151E+00,1.6088E+03,0.000E-01,4.727E-01
2.6359460E+00,5.74507E+01,1.4896E+01,1.5816E+03,8.3039E+00,1.5899E+03,0.000E-01,4.704E-01
2.6491257E+00,5.74813E+01,1.4794E+01,1.5628E+03,8.2925E+00,1.5711E+03,0.000E-01,4.680E-01
2.6623714E+00,5.75112E+01,1.4692E+01,1.5444E+03,8.2811E+00,1.5526E+03,0.000E-01,4.657E-01
2.6756832E+00,5.75404E+01,1.4591E+01,1.5261E+03,8.2695E+00,1.5344E+03,0.000E-01,4.634E-01
2.6890617E+00,5.75691E+01,1.4490E+01,1.5081E+03,8.2579E+00,1.5163E+03,0.000E-01,4.611E-01
2.7025070E+00,5.75971E+01,1.4391E+01,1.4903E+03,8.2461E+00,1.4985E+03,0.000E-01,4.588E-01
2.7160195E+00,5.76247E+01,1.4292E+01,1.4727E+03,8.2342E+00,1.4809E+03,0.000E-01,4.565E-01
2.7295996E+00,5.76516E+01,1.4194E+01,1.4553E+03,8.2222E+00,1.4635E+03,0.000E-01,4.542E-01
2.7432476E+00,5.76781E+01,1.4097E+01,1.4382E+03,8.2101E+00,1.4464E+03,0.000E-01,4.520E-01
2.7569638E+00,5.77042E+01,1.4001E+01,1.4213E+03,8.1979E+00,1.4295E+03,0.000E-01,4.497E-01
2.7707486E+00,5.77298E+01,1.3905E+01,1.4045E+03,8.1856E+00,1.4127E+03,0.000E-01,4.475E-01
2.7846024E+00,5.77551E+01,1.3811E+01,1.3880E+03,8.1732E+00,1.3962E+03,0.000E-01,4.452E-01
2.7985254E+00,5.77800E+01,1.3717E+01,1.3717E+03,8.1607E+00,1.3799E+03,0.000E-01,4.430E-01
2.8125180E+00,5.78046E+01,1.3624E+01,1.3557E+03,8.1481E+00,1.3638E+03,0.000E-01,4.408E-01
2.8265806E+00,5.78289E+01,1.3531E+01,1.3398E+03,8.1354E+00,1.3479E+03,0.000E-01,4.386E-01
2.8407135E+00,5.79556E+01,1.3440E+01,1.3241E+03,8.1226E+00,1.3322E+03,0.000E-01,4.365E-01
2.8549171E+00,5.79802E+01,1.3347E+01,1.3084E+03,8.1096E+00,1.3165E+03,0.000E-01,4.343E-01
2.8691917E+00,5.80046E+01,1.3255E+01,1.2929E+03,8.0966E+00,1.3010E+03,0.000E-01,4.321E-01
2.8835376E+00,5.80289E+01,1.3164E+01,1.2776E+03,8.0835E+00,1.2857E+03,0.000E-01,4.300E-01
2.8979553E+00,5.80531E+01,1.3073E+01,1.2625E+03,8.0703E+00,1.2706E+03,0.000E-01,4.278E-01
2.9124451E+00,5.80774E+01,1.2983E+01,1.2476E+03,8.0570E+00,1.2557E+03,0.000E-01,4.257E-01
2.9270073E+00,5.81021E+01,1.2894E+01,1.2329E+03,8.0436E+00,1.2409E+03,0.000E-01,4.236E-01
2.9416424E+00,5.81275E+01,1.2806E+01,1.2183E+03,8.0301E+00,1.2264E+03,0.000E-01,4.215E-01
2.9563506E+00,5.81540E+01,1.2718E+01,1.2040E+03,8.0165E+00,1.2120E+03,0.000E-01,4.194E-01
2.9711323E+00,5.81830E+01,1.2632E+01,1.1898E+03,8.0028E+00,1.1978E+03,0.000E-01,4.173E-01
2.9859880E+00,5.82179E+01,1.2545E+01,1.1758E+03,7.9890E+00,1.1838E+03,0.000E-01,4.152E-01
3.0009179E+00,5.82834E+01,1.2459E+01,1.1619E+03,7.9751E+00,1.1699E+03,0.000E-01,4.132E-01
3.0159225E+00,5.83010E+01,1.2360E+01,1.1470E+03,7.9611E+00,1.1549E+03,0.000E-01,4.111E-01
3.0310021E+00,5.83166E+01,1.2262E+01,1.1322E+03,7.9470E+00,1.1401E+03,0.000E-01,4.091E-01
3.0461571E+00,5.83307E+01,1.2165E+01,1.1176E+03,7.9328E+00,1.1256E+03,0.000E-01,4.070E-01
3.0613879E+00,5.83436E+01,1.2069E+01,1.1033E+03,7.9186E+00,1.1112E+03,0.000E-01,4.050E-01
3.0766949E+00,5.83556E+01,1.1973E+01,1.0891E+03,7.9042E+00,1.0970E+03,0.000E-01,4.030E-01
3.0920783E+00,5.84146E+01,1.1877E+01,1.0750E+03,7.8898E+00,1.0829E+03,0.000E-01,4.010E-01
3.1075387E+00,5.84249E+01,1.1782E+01,1.0611E+03,7.8753E+00,1.0690E+03,0.000E-01,3.990E-01
3.1230764E+00,5.84343E+01,1.1687E+01,1.0473E+03,7.8607E+00,1.0552E+03,0.000E-01,3.970E-01
3.1386918E+00,5.84427E+01,1.1594E+01,1.0338E+03,7.8459E+00,1.0416E+03,0.000E-01,3.950E-01
3.1543853E+00,5.84503E+01,1.1501E+01,1.0204E+03,7.8312E+00,1.0282E+03,0.000E-01,3.931E-01
3.1701572E+00,5.84570E+01,1.1409E+01,1.0072E+03,7.8163E+00,1.0150E+03,0.000E-01,3.911E-01
3.1860080E+00,5.84629E+01,1.1318E+01,9.9416E+02,7.8013E+00,1.0020E+03,0.000E-01,3.892E-01
3.2019380E+00,5.84681E+01,1.1227E+01,9.8132E+02,7.7863E+00,9.8910E+02,0.000E-01,3.872E-01
3.2179477E+00,5.84725E+01,1.1138E+01,9.6865E+02,7.7711E+00,9.7642E+02,0.000E-01,3.853E-01
3.2340374E+00,5.84763E+01,1.1049E+01,9.5615E+02,7.7559E+00,9.6391E+02,0.000E-01,3.834E-01
3.2502076E+00,5.84793E+01,1.0961E+01,9.4382E+02,7.7406E+00,9.5156E+02,0.000E-01,3.815E-01
3.2664587E+00,5.84817E+01,1.0874E+01,9.3166E+02,7.7252E+00,9.3939E+02,0.000E-01,3.796E-01
3.2827910E+00,5.84834E+01,1.0788E+01,9.1967E+02,7.7097E+00,9.2738E+02,0.000E-01,3.777E-01
3.2992049E+00,5.84846E+01,1.0702E+01,9.0783E+02,7.6942E+00,9.1553E+02,0.000E-01,3.758E-01
3.3157009E+00,5.84851E+01,1.0617E+01,8.9616E+02,7.6786E+00,9.0384E+02,0.000E-01,3.739E-01
3.3322794E+00,5.84850E+01,1.0533E+01,8.8464E+02,7.6629E+00,8.9230E+02,0.000E-01,3.721E-01
3.3489408E+00,5.84844E+01,1.0450E+01,8.7328E+02,7.6471E+00,8.8093E+02,0.000E-01,3.702E-01
3.3656856E+00,5.84832E+01,1.0367E+01,8.6207E+02,7.6312E+00,8.6970E+02,0.000E-01,3.684E-01
3.3825140E+00,5.84816E+01,1.0286E+01,8.5101E+02,7.6153E+00,8.5863E+02,0.000E-01,3.665E-01
3.3994265E+00,5.84793E+01,1.0205E+01,8.4011E+02,7.5992E+00,8.4771E+02,0.000E-01,3.647E-01
3.4164237E+00,5.84766E+01,1.0124E+01,8.2935E+02,7.5832E+00,8.3693E+02,0.000E-01,3.629E-01
3.4335058E+00,5.84735E+01,1.0045E+01,8.1873E+02,7.5670E+00,8.2630E+02,0.000E-01,3.611E-01
3.4506733E+00,5.84903E+01,9.9655E+00,8.0824E+02,7.5507E+00,8.1579E+02,0.000E-01,3.593E-01
3.4679267E+00,5.84863E+01,9.8865E+00,7.9785E+02,7.5344E+00,8.0538E+02,0.000E-01,3.575E-01
3.4852663E+00,5.84818E+01,9.8083E+00,7.8760E+02,7.5180E+00,7.9512E+02,0.000E-01,3.557E-01
3.5026927E+00,5.84768E+01,9.7308E+00,7.7749E+02,7.5016E+00,7.8499E+02,0.000E-01,3.540E-01
3.5202061E+00,5.84713E+01,9.6540E+00,7.6751E+02,7.4850E+00,7.7500E+02,0.000E-01,3.522E-01
3.5378072E+00,5.84653E+01,9.5778E+00,7.5767E+02,7.4684E+00,7.6514E+02,0.000E-01,3.505E-01
3.5554962E+00,5.84588E+01,9.5024E+00,7.4796E+02,7.4517E+00,7.5541E+02,0.000E-01,3.487E-01
3.5732737E+00,5.84519E+01,9.4276E+00,7.3838E+02,7.4350E+00,7.4581E+02,0.000E-01,3.470E-01
3.5911400E+00,5.84445E+01,9.3534E+00,7.2893E+02,7.4182E+00,7.3635E+02,0.000E-01,3.453E-01
3.6090957E+00,5.84367E+01,9.2799E+00,7.1960E+02,7.4013E+00,7.2701E+02,0.000E-01,3.435E-01
3.6271412E+00,5.84285E+01,9.2071E+00,7.1040E+02,7.3844E+00,7.1779E+02,0.000E-01,3.418E-01
3.6452769E+00,5.84198E+01,9.1349E+00,7.0133E+02,7.3673E+00,7.0870E+02,0.000E-01,3.401E-01
3.6635033E+00,5.84107E+01,9.0634E+00,6.9237E+02,7.3503E+00,6.9972E+02,0.000E-01,3.384E-01
3.6818208E+00,5.84012E+01,8.9925E+00,6.8354E+02,7.3331E+00,6.9087E+02,0.000E-01,3.367E-01
3.7002299E+00,5.83914E+01,8.9222E+00,6.7482E+02,7.3159E+00,6.8214E+02,0.000E-01,3.351E-01
3.7187311E+00,5.83811E+01,8.8525E+00,6.6622E+02,7.2986E+00,6.7352E+02,0.000E-01,3.334E-01
3.7373247E+00,5.83704E+01,8.7834E+00,6.5773E+02,7.2813E+00,6.6502E+02,0.000E-01,3.317E-01
3.7560114E+00,5.83594E+01,8.7150E+00,6.4936E+02,7.2639E+00,6.5663E+02,0.000E-01,3.301E-01
3.7747914E+00,5.83480E+01,8.6472E+00,6.4110E+02,7.2464E+00,6.4835E+02,0.000E-01,3.285E-01
3.7936654E+00,5.83362E+01,8.5799E+00,6.3295E+02,7.2289E+00,6.4018E+02,0.000E-01,3.268E-01
3.8126337E+00,5.83241E+01,8.5132E+00,6.2491E+02,7.2113E+00,6.3212E+02,0.000E-01,3.252E-01
3.8316969E+00,5.83116E+01,8.4472E+00,6.1697E+02,7.1937E+00,6.2417E+02,0.000E-01,3.236E-01
3.8508554E+00,5.82987E+01,8.3817E+00,6.0914E+02,7.1760E+00,6.1632E+02,0.000E-01,3.220E-01
3.8701096E+00,5.82855E+01,8.3167E+00,6.0142E+02,7.1582E+00,6.0858E+02,0.000E-01,3.204E-01
3.8894602E+00,5.82720E+01,8.2524E+00,5.9380E+02,7.1404E+00,6.0094E+02,0.000E-01,3.188E-01
3.9089075E+00,5.82581E+01,8.1886E+00,5.8627E+02,7.1225E+00,5.9340E+02,0.000E-01,3.172E-01
3.9284520E+00,5.82439E+01,8.1254E+00,5.7885E+02,7.1046E+00,5.8596E+02,0.000E-01,3.156E-01
3.9480943E+00,5.82293E+01,8.0627E+00,5.7153E+02,7.0866E+00,5.7862E+02,0.000E-01,3.140E-01
3.9678347E+00,5.82144E+01,8.0005E+00,5.6430E+02,7.0686E+00,5.7137E+02,0.000E-01,3.125E-01
3.9876739E+00,5.81992E+01,7.9390E+00,5.5717E+02,7.0505E+00,5.6422E+02,0.000E-01,3.109E-01
4.055024E+00,5.84761E+01,7.7360E+00,5.3391E+02,7.0175E+00,5.4093E+02,0.000E+00,3.058E-01
4.334821E+00,5.81800E+01,6.9839E+00,4.5089E+02,6.7704E+00,4.5766E+02,0.000E+00,2.860E-01
4.633924E+00,5.78318E+01,6.3137E+00,3.8131E+02,6.5161E+00,3.8783E+02,0.000E+00,2.676E-01
4.953664E+00,5.74103E+01,5.6849E+00,3.2117E+02,6.2563E+00,3.2743E+02,0.000E+00,2.503E-01
5.295467E+00,5.68644E+01,5.1162E+00,2.7039E+02,5.9928E+00,2.7638E+02,0.000E+00,2.341E-01
5.660855E+00,5.61302E+01,4.6131E+00,2.2807E+02,5.7270E+00,2.3380E+02,0.000E+00,2.190E-01
6.051453E+00,5.50264E+01,4.1674E+00,1.9273E+02,5.4605E+00,1.9819E+02,0.000E+00,2.049E-01
6.469004E+00,5.27472E+01,3.7560E+00,1.6249E+02,5.1948E+00,1.6768E+02,0.000E+00,1.917E-01
6.581876E+00,5.13760E+01,3.6557E+00,1.5544E+02,5.1261E+00,1.6057E+02,0.000E+00,1.884E-01
6.682619E+00,4.82974E+01,3.5699E+00,1.4950E+02,5.0660E+00,1.5457E+02,0.000E+00,1.855E-01
6.709484E+00,4.47163E+01,3.5469E+00,1.4795E+02,5.0501E+00,1.5300E+02,0.000E+00,1.848E-01
6.749781E+00,4.82774E+01,1.0486E+01,4.3478E+02,5.0265E+00,4.3981E+02,0.000E+00,1.837E-01
6.850524E+00,5.13435E+01,1.0155E+01,4.1488E+02,4.9681E+00,4.1985E+02,0.000E+00,1.810E-01
6.915365E+00,5.21218E+01,9.9509E+00,4.0271E+02,4.9310E+00,4.0764E+02,0.000E+00,1.793E-01
7.165564E+00,5.28838E+01,9.2642E+00,3.6183E+02,4.7918E+00,3.6662E+02,0.000E+00,1.730E-01
7.275241E+00,5.18181E+01,9.0154E+00,3.4680E+02,4.7326E+00,3.5153E+02,0.000E+00,1.704E-01
7.304488E+00,5.01326E+01,8.9518E+00,3.4298E+02,4.7170E+00,3.4770E+02,0.000E+00,1.697E-01
7.348359E+00,5.20594E+01,1.2348E+01,4.7029E+02,4.6938E+00,4.7498E+02,0.000E+00,1.687E-01
7.392525E+00,5.30809E+01,1.2208E+01,4.6216E+02,4.6706E+00,4.6683E+02,0.000E+00,1.677E-01
7.458036E+00,5.38886E+01,1.2005E+01,4.5049E+02,4.6364E+00,4.5513E+02,0.000E+00,1.662E-01
7.582064E+00,5.46545E+01,1.1638E+01,4.2957E+02,4.5728E+00,4.3414E+02,0.000E+00,1.635E-01
7.698116E+00,5.45824E+01,1.1318E+01,4.1147E+02,4.5145E+00,4.1598E+02,0.000E+00,1.611E-01
7.729063E+00,5.38405E+01,1.1241E+01,4.0701E+02,4.4991E+00,4.1151E+02,0.000E+00,1.604E-01
7.775484E+00,5.49428E+01,1.2884E+01,4.6372E+02,4.4763E+00,4.6820E+02,0.000E+00,1.595E-01
7.891536E+00,5.62108E+01,1.2596E+01,4.4670E+02,4.4198E+00,4.5112E+02,0.000E+00,1.571E-01
7.902609E+00,5.62920E+01,1.2569E+01,4.4513E+02,4.4145E+00,4.4954E+02,0.000E+00,1.569E-01
8.447890E+00,5.86461E+01,1.1380E+01,3.7700E+02,4.1638E+00,3.8116E+02,0.000E+00,1.468E-01
9.030794E+00,6.00049E+01,1.0264E+01,3.1809E+02,3.9193E+00,3.2201E+02,0.000E+00,1.373E-01
9.653919E+00,6.08642E+01,9.1830E+00,2.6621E+02,3.6819E+00,2.6989E+02,0.000E+00,1.284E-01
2.011215E+01,6.22344E+01,2.6460E+00,3.6820E+01,1.6509E+00,3.8471E+01,0.000E+00,6.165E-02
2.149988E+01,6.21440E+01,2.3624E+00,3.0751E+01,1.5217E+00,3.2273E+01,0.000E+00,5.767E-02
2.298338E+01,6.20492E+01,2.1111E+00,2.5706E+01,1.4011E+00,2.7107E+01,0.000E+00,5.395E-02
2.456923E+01,6.19516E+01,1.8879E+00,2.1505E+01,1.2888E+00,2.2794E+01,0.000E+00,5.046E-02
2.626450E+01,6.18538E+01,1.6898E+00,1.8006E+01,1.1845E+00,1.9190E+01,0.000E+00,4.721E-02
2.807676E+01,6.17569E+01,1.5024E+00,1.4976E+01,1.0879E+00,1.6064E+01,0.000E+00,4.416E-02
3.001405E+01,6.16432E+01,1.3321E+00,1.2421E+01,9.9858E-01,1.3420E+01,0.000E+00,4.131E-02
3.208502E+01,6.15154E+01,1.1796E+00,1.0289E+01,9.1621E-01,1.1205E+01,0.000E+00,3.864E-02
3.429889E+01,6.13696E+01,1.0428E+00,8.5091E+00,8.4038E-01,9.3495E+00,0.000E+00,3.615E-02
3.666551E+01,6.11938E+01,9.1997E-01,7.0220E+00,7.7073E-01,7.7927E+00,0.000E+00,3.381E-02
3.919543E+01,6.09665E+01,8.1156E-01,5.7947E+00,7.0687E-01,6.5016E+00,0.000E+00,3.163E-02
4.189992E+01,6.06307E+01,7.1648E-01,4.7856E+00,6.4844E-01,5.4340E+00,0.000E+00,2.959E-02
4.479101E+01,5.99454E+01,6.3304E-01,3.9553E+00,5.9507E-01,4.5504E+00,0.000E+00,2.768E-02
4.589752E+01,5.93118E+01,6.0513E-01,3.6898E+00,5.7674E-01,4.2665E+00,0.000E+00,2.701E-02
4.660003E+01,5.81331E+01,5.8841E-01,3.5338E+00,5.6565E-01,4.0994E+00,0.000E+00,2.661E-02
4.678737E+01,5.67210E+01,5.8407E-01,3.4937E+00,5.6275E-01,4.0564E+00,0.000E+00,2.650E-02
4.706837E+01,5.81477E+01,3.3575E+00,1.9963E+01,5.5847E-01,2.0521E+01,1.653E+01,2.634E-02
4.777089E+01,5.94373E+01,3.2817E+00,1.9226E+01,5.4802E-01,1.9774E+01,1.593E+01,2.595E-02
4.788159E+01,5.95434E+01,3.2700E+00,1.9113E+01,5.4640E-01,1.9659E+01,1.584E+01,2.589E-02
5.118542E+01,6.09184E+01,2.9424E+00,1.6088E+01,5.0210E-01,1.6590E+01,1.338E+01,2.422E-02
5.471721E+01,6.14636E+01,2.6381E+00,1.3493E+01,4.6182E-01,1.3955E+01,1.125E+01,2.266E-02
5.849270E+01,6.17813E+01,2.3625E+00,1.1303E+01,4.2525E-01,1.1728E+01,9.443E+00,2.120E-02
6.252870E+01,6.19873E+01,2.1137E+00,9.4604E+00,3.9210E-01,9.8525E+00,7.917E+00,1.983E-02
6.684318E+01,6.21242E+01,1.8891E+00,7.9093E+00,3.6208E-01,8.2714E+00,6.628E+00,1.855E-02
7.145536E+01,6.22165E+01,1.6883E+00,6.6124E+00,3.3492E-01,6.9473E+00,5.548E+00,1.735E-02
7.638578E+01,6.22786E+01,1.5088E+00,5.5281E+00,3.1036E-01,5.8385E+00,4.643E+00,1.623E-02
8.165640E+01,6.23211E+01,1.3466E+00,4.6153E+00,2.8817E-01,4.9035E+00,3.881E+00,1.518E-02
8.729069E+01,6.23457E+01,1.1983E+00,3.8418E+00,2.6813E-01,4.1099E+00,3.236E+00,1.420E-02
9.331374E+01,6.23573E+01,1.0664E+00,3.1983E+00,2.5004E-01,3.4483E+00,2.699E+00,1.329E-02
9.975239E+01,6.23883E+01,9.4560E-01,2.6530E+00,2.3370E-01,2.8867E+00,2.241E+00,1.243E-02
2.078156E+02,6.22010E+01,2.5307E-01,3.4081E-01,1.2888E-01,4.6969E-01,2.890E-01,5.966E-03
2.221548E+02,6.21845E+01,2.2533E-01,2.8387E-01,1.2347E-01,4.0734E-01,2.408E-01,5.581E-03
2.374835E+02,6.21693E+01,2.0065E-01,2.3646E-01,1.1844E-01,3.5490E-01,2.007E-01,5.221E-03
2.538699E+02,6.21551E+01,1.7868E-01,1.9698E-01,1.1374E-01,3.1072E-01,1.672E-01,4.884E-03
2.713869E+02,6.21419E+01,1.5913E-01,1.6410E-01,1.0933E-01,2.7343E-01,1.393E-01,4.569E-03
2.901126E+02,6.21297E+01,1.4172E-01,1.3672E-01,1.0518E-01,2.4190E-01,1.161E-01,4.274E-03
3.101304E+02,6.21185E+01,1.2623E-01,1.1391E-01,1.0126E-01,2.1517E-01,9.677E-02,3.998E-03
3.315294E+02,6.21081E+01,1.1243E-01,9.4913E-02,9.7528E-02,1.9244E-01,8.064E-02,3.740E-03
3.544049E+02,6.20985E+01,1.0015E-01,7.9088E-02,9.3973E-02,1.7306E-01,6.720E-02,3.498E-03
3.788588E+02,6.20896E+01,8.9218E-02,6.5906E-02,9.0572E-02,1.5648E-01,5.600E-02,3.273E-03
4.050001E+02,6.20815E+01,7.9481E-02,5.4923E-02,8.7306E-02,1.4223E-01,4.667E-02,3.061E-03
4.329451E+02,6.20741E+01,7.0810E-02,4.5773E-02,8.4162E-02,1.2994E-01,3.889E-02,2.864E-03
