E [keV],f1 [e atom⁻¹],f2 [e atom⁻¹],μ/ρ [cm² g⁻¹],σ/ρ [cm² g⁻¹],μ/ρ total [cm² g⁻¹],μ/ρ_K [cm² g⁻¹],λ [nm]
2.0035635E+00,5.34743E+01,1.9005E+01,2.7673E+03,8.4418E+00,2.7758E+03,0.000E-01,6.188E-01
2.0135813E+00,5.35425E+01,1.8879E+01,2.7352E+03,8.4373E+00,2.7437E+03,0.000E-01,6.157E-01
2.0236492E+00,5.36094E+01,1.8753E+01,2.7035E+03,8.4328E+00,2.7119E+03,0.000E-01,6.127E-01
2.0337675E+00,5.36750E+01,1.8628E+01,2.6721E+03,8.4281E+00,2.6806E+03,0.000E-01,6.096E-01
2.0439363E+00,5.37394E+01,1.8504E+01,2.6411E+03,8.4233E+00,2.6496E+03,0.000E-01,6.066E-01
2.0541560E+00,5.38025E+01,1.8380E+01,2.6104E+03,8.4183E+00,2.6188E+03,0.000E-01,6.036E-01
2.0644268E+00,5.38641E+01,1.8257E+01,2.5800E+03,8.4133E+00,2.5884E+03,0.000E-01,6.006E-01
2.0747489E+00,5.39243E+01,1.8134E+01,2.5499E+03,8.4081E+00,2.5583E+03,0.000E-01,5.976E-01
2.0851227E+00,5.39832E+01,1.8012E+01,2.5201E+03,8.4027E+00,2.5285E+03,0.000E-01,5.946E-01
2.0955483E+00,5.40407E+01,1.7891E+01,2.4907E+03,8.3973E+00,2.4991E+03,0.000E-01,5.917E-01
2.1060260E+00,5.40969E+01,1.7770E+01,2.4616E+03,8.3917E+00,2.4700E+03,0.000E-01,5.887E-01
2.1165562E+00,5.41520E+01,1.7651E+01,2.4329E+03,8.3859E+00,2.4413E+03,0.000E-01,5.858E-01
2.1271389E+00,5.42057E+01,1.7532E+01,2.4045E+03,8.3801E+00,2.4129E+03,0.000E-01,5.829E-01
2.1377746E+00,5.42583E+01,1.7414E+01,2.3764E+03,8.3741E+00,2.3848E+03,0.000E-01,5.800E-01
2.1484635E+00,5.43098E+01,1.7296E+01,2.3487E+03,8.3680E+00,2.3570E+03,0.000E-01,5.771E-01
2.1592058E+00,5.43601E+01,1.7180E+01,2.3212E+03,8.3618E+00,2.3296E+03,0.000E-01,5.742E-01
2.1700018E+00,5.44093E+01,1.7064E+01,2.2941E+03,8.3554E+00,2.3025E+03,0.000E-01,5.714E-01
2.1808519E+00,5.44575E+01,1.6949E+01,2.2673E+03,8.3489E+00,2.2757E+03,0.000E-01,5.685E-01
2.1917561E+00,5.45045E+01,1.6835E+01,2.2408E+03,8.3423E+00,2.2492E+03,0.000E-01,5.657E-01
2.2027149E+00,5.45506E+01,1.6721E+01,2.2147E+03,8.3356E+00,2.2230E+03,0.000E-01,5.629E-01
2.2137285E+00,5.45957E+01,1.6607E+01,2.1886E+03,8.3287E+00,2.1969E+03,0.000E-01,5.601E-01
2.2247971E+00,5.46397E+01,1.6492E+01,2.1627E+03,8.3217E+00,2.1710E+03,0.000E-01,5.573E-01
2.2359211E+00,5.46827E+01,1.6379E+01,2.1371E+03,8.3146E+00,2.1454E+03,0.000E-01,5.545E-01
2.2471007E+00,5.47246E+01,1.6266E+01,2.1118E+03,8.3074E+00,2.1201E+03,0.000E-01,5.518E-01
2.2583362E+00,5.47654E+01,1.6154E+01,2.0868E+03,8.3000E+00,2.0951E+03,0.000E-01,5.490E-01
2.2696279E+00,5.48053E+01,1.6042E+01,2.0621E+03,8.2925E+00,2.0704E+03,0.000E-01,5.463E-01
2.2809760E+00,5.48442E+01,1.5932E+01,2.0377E+03,8.2849E+00,2.0460E+03,0.000E-01,5.436E-01
2.2923809E+00,5.48821E+01,1.5822E+01,2.0136E+03,8.2772E+00,2.0219E+03,0.000E-01,5.409E-01
2.3038428E+00,5.49191E+01,1.5713E+01,1.9898E+03,8.2694E+00,1.9981E+03,0.000E-01,5.382E-01
2.3153620E+00,5.49552E+01,1.5605E+01,1.9663E+03,8.2614E+00,1.9745E+03,0.000E-01,5.355E-01
2.3269388E+00,5.49904E+01,1.5498E+01,1.9430E+03,8.2533E+00,1.9513E+03,0.000E-01,5.328E-01
2.3385735E+00,5.50247E+01,1.5391E+01,1.9201E+03,8.2451E+00,1.9283E+03,0.000E-01,5.302E-01
2.3502664E+00,5.50582E+01,1.5286E+01,1.8974E+03,8.2368E+00,1.9057E+03,0.000E-01,5.275E-01
2.3620177E+00,5.50909E+01,1.5181E+01,1.8750E+03,8.2283E+00,1.8832E+03,0.000E-01,5.249E-01
2.3738278E+00,5.51227E+01,1.5077E+01,1.8529E+03,8.2197E+00,1.8611E+03,0.000E-01,5.223E-01
2.3856970E+00,5.51538E+01,1.4973E+01,1.8310E+03,8.2110E+00,1.8393E+03,0.000E-01,5.197E-01
2.3976254E+00,5.51841E+01,1.4871E+01,1.8095E+03,8.2022E+00,1.8177E+03,0.000E-01,5.171E-01
2.4096136E+00,5.52137E+01,1.4769E+01,1.7881E+03,8.1933E+00,1.7963E+03,0.000E-01,5.145E-01
2.4216616E+00,5.52426E+01,1.4668E+01,1.7671E+03,8.1843E+00,1.7753E+03,0.000E-01,5.120E-01
2.4337699E+00,5.52707E+01,1.4568E+01,1.7463E+03,8.1751E+00,1.7545E+03,0.000E-01,5.094E-01
2.4459388E+00,5.52982E+01,1.4469E+01,1.7257E+03,8.1659E+00,1.7339E+03,0.000E-01,5.069E-01
2.4581685E+00,5.53251E+01,1.4370E+01,1.7055E+03,8.1565E+00,1.7136E+03,0.000E-01,5.044E-01
2.4704593E+00,5.53513E+01,1.4272E+01,1.6854E+03,8.1470E+00,1.6936E+03,0.000E-01,5.019E-01
2.4828116E+00,5.53768E+01,1.4175E+01,1.6656E+03,8.1374E+00,1.6738E+03,0.000E-01,4.994E-01
2.4952257E+00,5.54018E+01,1.4079E+01,1.6461E+03,8.1276E+00,1.6542E+03,0.000E-01,4.969E-01
2.5077018E+00,5.54262E+01,1.3983E+01,1.6268E+03,8.1178E+00,1.6349E+03,0.000E-01,4.944E-01
2.5202403E+00,5.54501E+01,1.3888E+01,1.6077E+03,8.1078E+00,1.6158E+03,0.000E-01,4.920E-01
2.5328415E+00,5.54734E+01,1.3794E+01,1.5889E+03,8.0978E+00,1.5970E+03,0.000E-01,4.895E-01
2.5455057E+00,5.54962E+01,1.3701E+01,1.5703E+03,8.0876E+00,1.5783E+03,0.000E-01,4.871E-01
2.5582333E+00,5.55185E+01,1.3608E+01,1.5519E+03,8.0773E+00,1.5600E+03,0.000E-01,4.846E-01
2.5710244E+00,5.55404E+01,1.3517E+01,1.5338E+03,8.0669E+00,1.5418E+03,0.000E-01,4.822E-01
2.5838796E+00,5.55618E+01,1.3425E+01,1.5158E+03,8.0564E+00,1.5239E+03,0.000E-01,4.798E-01
2.5967990E+00,5.56852E+01,1.3335E+01,1.4981E+03,8.0458E+00,1.5061E+03,0.000E-01,4.775E-01
2.6097829E+00,5.57063E+01,1.3243E+01,1.4804E+03,8.0351E+00,1.4884E+03,0.000E-01,4.751E-01
2.6228319E+00,5.57268E+01,1.3152E+01,1.4629E+03,8.0242E+00,1.4709E+03,0.000E-01,4.727E-01
2.6359460E+00,5.57467E+01,1.3061E+01,1.4456E+03,8.0133E+00,1.4536E+03,0.000E-01,4.704E-01
2.6491257E+00,5.57661E+01,1.2972E+01,1.4285E+03,8.0022E+00,1.4365E+03,0.000E-01,4.680E-01
2.6623714E+00,5.57849E+01,1.2883E+01,1.4117E+03,7.9911E+00,1.4197E+03,0.000E-01,4.657E-01
2.6756832E+00,5.58032E+01,1.2794E+01,1.3950E+03,7.9798E+00,1.4030E+03,0.000E-01,4.634E-01
2.6890617E+00,5.58211E+01,1.2707E+01,1.3786E+03,7.9685E+00,1.3865E+03,0.000E-01,4.611E-01
2.7025070E+00,5.58385E+01,1.2620E+01,1.3623E+03,7.9570E+00,1.3703E+03,0.000E-01,4.588E-01
2.7160195E+00,5.58555E+01,1.2534E+01,1.3463E+03,7.9454E+00,1.3542E+03,0.000E-01,4.565E-01
2.7295996E+00,5.58721E+01,1.2448E+01,1.3304E+03,7.9337E+00,1.3384E+03,0.000E-01,4.542E-01
2.7432476E+00,5.58884E+01,1.2363E+01,1.3148E+03,7.9220E+00,1.3227E+03,0.000E-01,4.520E-01
2.7569638E+00,5.59043E+01,1.2279E+01,1.2994E+03,7.9101E+00,1.3073E+03,0.000E-01,4.497E-01
2.7707486E+00,5.59200E+01,1.2196E+01,1.2841E+03,7.8981E+00,1.2920E+03,0.000E-01,4.475E-01
2.7846024E+00,5.59354E+01,1.2113E+01,1.2690E+03,7.8860E+00,1.2769E+03,0.000E-01,4.452E-01
2.7985254E+00,5.59506E+01,1.2030E+01,1.2541E+03,7.8738E+00,1.2620E+03,0.000E-01,4.430E-01
2.8125180E+00,5.60125E+01,1.1948E+01,1.2394E+03,7.8615E+00,1.2472E+03,0.000E-01,4.408E-01
2.8265806E+00,5.60276E+01,1.1866E+01,1.2248E+03,7.8492E+00,1.2326E+03,0.000E-01,4.386E-01
2.8407135E+00,5.60425E+01,1.1785E+01,1.2103E+03,7.8367E+00,1.2181E+03,0.000E-01,4.365E-01
2.8549171E+00,5.60573E+01,1.1704E+01,1.1960E+03,7.8241E+00,1.2039E+03,0.000E-01,4.343E-01
2.8691917E+00,5.60720E+01,1.1624E+01,1.1819E+03,7.8114E+00,1.1898E+03,0.000E-01,4.321E-01
2.8835376E+00,5.60868E+01,1.1545E+01,1.1680E+03,7.7987E+00,1.1758E+03,0.000E-01,4.300E-01
2.8979553E+00,5.61016E+01,1.1466E+01,1.1543E+03,7.7858E+00,1.1621E+03,0.000E-01,4.278E-01
2.9124451E+00,5.61167E+01,1.1388E+01,1.1407E+03,7.7728E+00,1.1485E+03,0.000E-01,4.257E-01
2.9270073E+00,5.61323E+01,1.1310E+01,1.1273E+03,7.7598E+00,1.1351E+03,0.000E-01,4.236E-01
2.9416424E+00,5.61642E+01,1.1233E+01,1.1140E+03,7.7466E+00,1.1218E+03,0.000E-01,4.215E-01
2.9563506E+00,5.61826E+01,1.1157E+01,1.1010E+03,7.7334E+00,1.1087E+03,0.000E-01,4.194E-01
2.9711323E+00,5.62027E+01,1.1081E+01,1.0880E+03,7.7200E+00,1.0958E+03,0.000E-01,4.173E-01
2.9859880E+00,5.62254E+01,1.1006E+01,1.0753E+03,7.7066E+00,1.0830E+03,0.000E-01,4.152E-01
3.0009179E+00,5.62662E+01,1.0930E+01,1.0626E+03,7.6931E+00,1.0703E+03,0.000E-01,4.132E-01
3.0159225E+00,5.62762E+01,1.0844E+01,1.0490E+03,7.6795E+00,1.0567E+03,0.000E-01,4.111E-01
3.0310021E+00,5.62847E+01,1.0758E+01,1.0355E+03,7.6658E+00,1.0432E+03,0.000E-01,4.091E-01
3.0461571E+00,5.62920E+01,1.0674E+01,1.0222E+03,7.6520E+00,1.0299E+03,0.000E-01,4.070E-01
3.0613879E+00,5.62981E+01,1.0589E+01,1.0091E+03,7.6381E+00,1.0168E+03,0.000E-01,4.050E-01
3.0766949E+00,5.63033E+01,1.0506E+01,9.9620E+02,7.6241E+00,1.0038E+03,0.000E-01,4.030E-01
3.0920783E+00,5.63075E+01,1.0423E+01,9.8343E+02,7.6101E+00,9.9104E+02,0.000E-01,4.010E-01
3.1075387E+00,5.63109E+01,1.0341E+01,9.7084E+02,7.5960E+00,9.7844E+02,0.000E-01,3.990E-01
3.1230764E+00,5.63136E+01,1.0260E+01,9.5841E+02,7.5817E+00,9.6599E+02,0.000E-01,3.970E-01
3.1386918E+00,5.63154E+01,1.0179E+01,9.4615E+02,7.5674E+00,9.5372E+02,0.000E-01,3.950E-01
3.1543853E+00,5.63367E+01,1.0099E+01,9.3403E+02,7.5530E+00,9.4159E+02,0.000E-01,3.931E-01
3.1701572E+00,5.63375E+01,1.0019E+01,9.2203E+02,7.5385E+00,9.2957E+02,0.000E-01,3.911E-01
3.1860080E+00,5.63375E+01,9.9400E+00,9.1019E+02,7.5240E+00,9.1772E+02,0.000E-01,3.892E-01
3.2019380E+00,5.63368E+01,9.8615E+00,8.9851E+02,7.5093E+00,9.0602E+02,0.000E-01,3.872E-01
3.2179477E+00,5.63355E+01,9.7836E+00,8.8698E+02,7.4946E+00,8.9448E+02,0.000E-01,3.853E-01
3.2340374E+00,5.63336E+01,9.7064E+00,8.7560E+02,7.4798E+00,8.8308E+02,0.000E-01,3.834E-01
3.2502076E+00,5.63310E+01,9.6299E+00,8.6438E+02,7.4649E+00,8.7184E+02,0.000E-01,3.815E-01
3.2664587E+00,5.63279E+01,9.5540E+00,8.5330E+02,7.4499E+00,8.6075E+02,0.000E-01,3.796E-01
3.2827910E+00,5.63242E+01,9.4788E+00,8.4237E+02,7.4349E+00,8.4980E+02,0.000E-01,3.777E-01
3.2992049E+00,5.63200E+01,9.4042E+00,8.3158E+02,7.4198E+00,8.3900E+02,0.000E-01,3.758E-01
3.3157009E+00,5.63152E+01,9.3302E+00,8.2094E+02,7.4046E+00,8.2834E+02,0.000E-01,3.739E-01
3.3322794E+00,5.63100E+01,9.2569E+00,8.1043E+02,7.3893E+00,8.1782E+02,0.000E-01,3.721E-01
3.3489408E+00,5.63042E+01,9.1842E+00,8.0007E+02,7.3739E+00,8.0744E+02,0.000E-01,3.702E-01
3.3656856E+00,5.62979E+01,9.1121E+00,7.8984E+02,7.3585E+00,7.9720E+02,0.000E-01,3.684E-01
3.3825140E+00,5.62912E+01,9.0407E+00,7.7975E+02,7.3430E+00,7.8709E+02,0.000E-01,3.665E-01
3.3994265E+00,5.62840E+01,8.9699E+00,7.6979E+02,7.3274E+00,7.7712E+02,0.000E-01,3.647E-01
3.4164237E+00,5.62763E+01,8.8996E+00,7.5996E+02,7.3118E+00,7.6728E+02,0.000E-01,3.629E-01
3.4335058E+00,5.62682E+01,8.8300E+00,7.5027E+02,7.2960E+00,7.5756E+02,0.000E-01,3.611E-01
3.4506733E+00,5.62597E+01,8.7610E+00,7.4070E+02,7.2802E+00,7.4798E+02,0.000E-01,3.593E-01
3.4679267E+00,5.62507E+01,8.6925E+00,7.3126E+02,7.2644E+00,7.3852E+02,0.000E-01,3.575E-01
3.4852663E+00,5.62413E+01,8.6247E+00,7.2194E+02,7.2484E+00,7.2919E+02,0.000E-01,3.557E-01
3.5026927E+00,5.62315E+01,8.5574E+00,7.1275E+02,7.2324E+00,7.1998E+02,0.000E-01,3.540E-01
3.5202061E+00,5.62213E+01,8.4907E+00,7.0367E+02,7.2163E+00,7.1089E+02,0.000E-01,3.522E-01
3.5378072E+00,5.62107E+01,8.4246E+00,6.9472E+02,7.2002E+00,7.0192E+02,0.000E-01,3.505E-01
3.5554962E+00,5.61997E+01,8.3591E+00,6.8589E+02,7.1840E+00,6.9307E+02,0.000E-01,3.487E-01
3.5732737E+00,5.61883E+01,8.2941E+00,6.7717E+02,7.1677E+00,6.8434E+02,0.000E-01,3.470E-01
3.5911400E+00,5.61766E+01,8.2297E+00,6.6857E+02,7.1513E+00,6.7572E+02,0.000E-01,3.453E-01
3.6090957E+00,5.61645E+01,8.1658E+00,6.6008E+02,7.1349E+00,6.6721E+02,0.000E-01,3.435E-01
3.6271412E+00,5.61520E+01,8.1025E+00,6.5170E+02,7.1184E+00,6.5882E+02,0.000E-01,3.418E-01
3.6452769E+00,5.61391E+01,8.0397E+00,6.4343E+02,7.1019E+00,6.5054E+02,0.000E-01,3.401E-01
3.6635033E+00,5.61259E+01,7.9775E+00,6.3528E+02,7.0853E+00,6.4236E+02,0.000E-01,3.384E-01
3.6818208E+00,5.61124E+01,7.9158E+00,6.2723E+02,7.0686E+00,6.3430E+02,0.000E-01,3.367E-01
3.7002299E+00,5.60985E+01,7.8546E+00,6.1928E+02,7.0519E+00,6.2634E+02,0.000E-01,3.351E-01
3.7187311E+00,5.60842E+01,7.7940E+00,6.1145E+02,7.0351E+00,6.1848E+02,0.000E-01,3.334E-01
3.7373247E+00,5.60696E+01,7.7339E+00,6.0371E+02,7.0182E+00,6.1073E+02,0.000E-01,3.317E-01
3.7560114E+00,5.60547E+01,7.6743E+00,5.9608E+02,7.0013E+00,6.0308E+02,0.000E-01,3.301E-01
3.7747914E+00,5.60394E+01,7.6152E+00,5.8855E+02,6.9844E+00,5.9553E+02,0.000E-01,3.285E-01
3.7936654E+00,5.60239E+01,7.5566E+00,5.8111E+02,6.9673E+00,5.8808E+02,0.000E-01,3.268E-01
3.8126337E+00,5.60080E+01,7.4985E+00,5.7378E+02,6.9502E+00,5.8073E+02,0.000E-01,3.252E-01
3.8316969E+00,5.59917E+01,7.4409E+00,5.6654E+02,6.9331E+00,5.7347E+02,0.000E-01,3.236E-01
3.8508554E+00,5.59752E+01,7.3839E+00,5.5940E+02,6.9159E+00,5.6631E+02,0.000E-01,3.220E-01
3.8701096E+00,5.59584E+01,7.3273E+00,5.5235E+02,6.8986E+00,5.5925E+02,0.000E-01,3.204E-01
3.8894602E+00,5.59412E+01,7.2712E+00,5.4539E+02,6.8813E+00,5.5227E+02,0.000E-01,3.188E-01
3.9089075E+00,5.59237E+01,7.2155E+00,5.3853E+02,6.8640E+00,5.4539E+02,0.000E-01,3.172E-01
3.9284520E+00,5.59059E+01,7.1584E+00,5.3161E+02,6.8465E+00,5.3845E+02,0.000E-01,3.156E-01
3.9480943E+00,5.58876E+01,7.1016E+00,5.2476E+02,6.8291E+00,5.3159E+02,0.000E-01,3.140E-01
3.9678347E+00,5.58688E+01,7.0453E+00,5.1801E+02,6.8115E+00,5.2482E+02,0.000E-01,3.125E-01
3.9876739E+00,5.58496E+01,6.9895E+00,5.1135E+02,6.7940E+00,5.1815E+02,0.000E-01,3.109E-01
4.055024E+00,5.58798E+01,6.8021E+00,4.8938E+02,6.7643E+00,4.9614E+02,0.000E+00,3.058E-01
4.334821E+00,5.55364E+01,6.1071E+00,4.1102E+02,6.5244E+00,4.1754E+02,0.000E+00,2.860E-01
4.633924E+00,5.50956E+01,5.4906E+00,3.4567E+02,6.2776E+00,3.5195E+02,0.000E+00,2.676E-01
4.953664E+00,5.45257E+01,4.9438E+00,2.9116E+02,6.0255E+00,2.9719E+02,0.000E+00,2.503E-01
5.295467E+00,5.37453E+01,4.4599E+00,2.4570E+02,5.7700E+00,2.5147E+02,0.000E+00,2.341E-01
5.660855E+00,5.25236E+01,4.0284E+00,2.0761E+02,5.5123E+00,2.1312E+02,0.000E+00,2.190E-01
6.051453E+00,4.96236E+01,3.6265E+00,1.7483E+02,5.2541E+00,1.8008E+02,0.000E+00,2.049E-01
6.083742E+00,4.90992E+01,3.5963E+00,1.7246E+02,5.2336E+00,1.7769E+02,0.000E+00,2.038E-01
6.176861E+00,4.59862E+01,3.5094E+00,1.6575E+02,5.1749E+00,1.7092E+02,0.000E+00,2.007E-01
6.201692E+00,4.23756E+01,3.4869E+00,1.6403E+02,5.1594E+00,1.6919E+02,0.000E+00,1.999E-01
6.238940E+00,4.59501E+01,1.0477E+01,4.8989E+02,5.1363E+00,4.9503E+02,0.000E+00,1.987E-01
6.332058E+00,4.90157E+01,1.0157E+01,4.6796E+02,5.0791E+00,4.7304E+02,0.000E+00,1.958E-01
6.469004E+00,5.03230E+01,9.7134E+00,4.3805E+02,4.9967E+00,4.4305E+02,0.000E+00,1.917E-01
6.587070E+00,5.04754E+01,9.3795E+00,4.1541E+02,4.9273E+00,4.2034E+02,0.000E+00,1.882E-01
6.687892E+00,4.94518E+01,9.1261E+00,3.9810E+02,4.8691E+00,4.0297E+02,0.000E+00,1.854E-01
6.714778E+00,4.77614E+01,9.0613E+00,3.9369E+02,4.8537E+00,3.9854E+02,0.000E+00,1.846E-01
6.755107E+00,4.97211E+01,1.2490E+01,5.3941E+02,4.8309E+00,5.4424E+02,0.000E+00,1.835E-01
6.855930E+00,5.16041E+01,1.2143E+01,5.1672E+02,4.7743E+00,5.2149E+02,0.000E+00,1.808E-01
6.915365E+00,5.21180E+01,1.1947E+01,5.0399E+02,4.7415E+00,5.0873E+02,0.000E+00,1.793E-01
6.983480E+00,5.24797E+01,1.1729E+01,4.8998E+02,4.7042E+00,4.9468E+02,0.000E+00,1.775E-01
7.090370E+00,5.24047E+01,1.1409E+01,4.6942E+02,4.6466E+00,4.7407E+02,0.000E+00,1.749E-01
7.118874E+00,5.16595E+01,1.1330E+01,4.6431E+02,4.6315E+00,4.6894E+02,0.000E+00,1.742E-01
7.161630E+00,5.27687E+01,1.2981E+01,5.2880E+02,4.6088E+00,5.3341E+02,0.000E+00,1.731E-01
7.268520E+00,5.40478E+01,1.2689E+01,5.0929E+02,4.5530E+00,5.1384E+02,0.000E+00,1.706E-01
7.392525E+00,5.48829E+01,1.2368E+01,4.8810E+02,4.4895E+00,4.9259E+02,0.000E+00,1.677E-01
7.902609E+00,5.68673E+01,1.1191E+01,4.1314E+02,4.2418E+00,4.1738E+02,0.000E+00,1.569E-01
8.447890E+00,5.80697E+01,1.0105E+01,3.4897E+02,3.9995E+00,3.5297E+02,0.000E+00,1.468E-01
9.030794E+00,5.88974E+01,9.0889E+00,2.9361E+02,3.7634E+00,2.9737E+02,0.000E+00,1.373E-01
9.653919E+00,5.94525E+01,8.1175E+00,2.4531E+02,3.5342E+00,2.4884E+02,0.000E+00,1.284E-01
2.011215E+01,6.01261E+01,2.3103E+00,3.3513E+01,1.5795E+00,3.5092E+01,0.000E+00,6.165E-02
2.149988E+01,6.00284E+01,2.0622E+00,2.7982E+01,1.4556E+00,2.9438E+01,0.000E+00,5.767E-02
2.298338E+01,5.99273E+01,1.8424E+00,2.3386E+01,1.3401E+00,2.4726E+01,0.000E+00,5.395E-02
2.456923E+01,5.98234E+01,1.6476E+00,1.9563E+01,1.2326E+00,2.0796E+01,0.000E+00,5.046E-02
2.626450E+01,5.97171E+01,1.4747E+00,1.6381E+01,1.1328E+00,1.7514E+01,0.000E+00,4.721E-02
2.807676E+01,5.96126E+01,1.3090E+00,1.3601E+01,1.0404E+00,1.4641E+01,0.000E+00,4.416E-02
3.001405E+01,5.94862E+01,1.1578E+00,1.1254E+01,9.5512E-01,1.2209E+01,0.000E+00,4.131E-02
3.208502E+01,5.93390E+01,1.0217E+00,9.2900E+00,8.7646E-01,1.0166E+01,0.000E+00,3.864E-02
3.429889E+01,5.91595E+01,9.0046E-01,7.6591E+00,8.0411E-01,8.4632E+00,0.000E+00,3.615E-02
3.666551E+01,5.89249E+01,7.9380E-01,6.3161E+00,7.3770E-01,7.0538E+00,0.000E+00,3.381E-02
3.919543E+01,5.85720E+01,7.0034E-01,5.2127E+00,6.7685E-01,5.8896E+00,0.000E+00,3.163E-02
4.189992E+01,5.78130E+01,6.1837E-01,4.3056E+00,6.2120E-01,4.9268E+00,0.000E+00,2.959E-02
4.269752E+01,5.72777E+01,5.9708E-01,4.0797E+00,6.0637E-01,4.6861E+00,0.000E+00,2.904E-02
4.335106E+01,5.60865E+01,5.8049E-01,3.9065E+00,5.9470E-01,4.5012E+00,0.000E+00,2.860E-02
4.352533E+01,5.46590E+01,5.7619E-01,3.8620E+00,5.9166E-01,4.4537E+00,0.000E+00,2.849E-02
4.378675E+01,5.61019E+01,3.3802E+00,2.2521E+01,5.8715E-01,2.3108E+01,1.872E+01,2.832E-02
4.444028E+01,5.74061E+01,3.3033E+00,2.1685E+01,5.7616E-01,2.2261E+01,1.805E+01,2.790E-02
4.479101E+01,5.77322E+01,3.2633E+00,2.1255E+01,5.7041E-01,2.1825E+01,1.770E+01,2.768E-02
4.788159E+01,5.89643E+01,2.9336E+00,1.7874E+01,5.2412E-01,1.8398E+01,1.493E+01,2.589E-02
5.118542E+01,5.94877E+01,2.6295E+00,1.4987E+01,4.8201E-01,1.5469E+01,1.255E+01,2.422E-02
5.471721E+01,5.97971E+01,2.3545E+00,1.2554E+01,4.4375E-01,1.2998E+01,1.053E+01,2.266E-02
5.849270E+01,5.99994E+01,2.1055E+00,1.0501E+01,4.0903E-01,1.0910E+01,8.827E+00,2.120E-02
6.252870E+01,6.01336E+01,1.8805E+00,8.7740E+00,3.7758E-01,9.1516E+00,7.385E+00,1.983E-02
6.684318E+01,6.02238E+01,1.6795E+00,7.3302E+00,3.4911E-01,7.6793E+00,6.176E+00,1.855E-02
7.145536E+01,6.02840E+01,1.4999E+00,6.1236E+00,3.2336E-01,6.4470E+00,5.165E+00,1.735E-02
7.638578E+01,6.03235E+01,1.3393E+00,5.1153E+00,3.0009E-01,5.4154E+00,4.318E+00,1.623E-02
8.165640E+01,6.03490E+01,1.1944E+00,4.2671E+00,2.7907E-01,4.5462E+00,3.606E+00,1.518E-02
8.729069E+01,6.03916E+01,1.0619E+00,3.5491E+00,2.6009E-01,3.8092E+00,3.004E+00,1.420E-02
9.331374E+01,6.03920E+01,9.4080E-01,2.9413E+00,2.4296E-01,3.1843E+00,2.492E+00,1.329E-02
9.975239E+01,6.03843E+01,8.3358E-01,2.4379E+00,2.2749E-01,2.6654E+00,2.067E+00,1.243E-02
2.078156E+02,6.01858E+01,2.2225E-01,3.1200E-01,1.2794E-01,4.3994E-01,2.655E-01,5.966E-03
2.221548E+02,6.01704E+01,1.9761E-01,2.5950E-01,1.2275E-01,3.8225E-01,2.209E-01,5.581E-03
2.374835E+02,6.01561E+01,1.7571E-01,2.1585E-01,1.1791E-01,3.3376E-01,1.838E-01,5.221E-03
2.538699E+02,6.01428E+01,1.5625E-01,1.7955E-01,1.1337E-01,2.9292E-01,1.529E-01,4.884E-03
2.713869E+02,6.01305E+01,1.3895E-01,1.4937E-01,1.0911E-01,2.5848E-01,1.272E-01,4.569E-03
2.901126E+02,6.01191E+01,1.2357E-01,1.2426E-01,1.0508E-01,2.2934E-01,1.058E-01,4.274E-03
3.101304E+02,6.01086E+01,1.0990E-01,1.0339E-01,1.0126E-01,2.0465E-01,8.804E-02,3.998E-03
3.315294E+02,6.00989E+01,9.7751E-02,8.6019E-02,9.7616E-02,1.8364E-01,7.325E-02,3.740E-03
3.544049E+02,6.00900E+01,8.6948E-02,7.1574E-02,9.4134E-02,1.6571E-01,6.094E-02,3.498E-03
3.788588E+02,6.00818E+01,7.7342E-02,5.9557E-02,9.0793E-02,1.5035E-01,5.070E-02,3.273E-03
4.050001E+02,6.00743E+01,6.8801E-02,4.9561E-02,8.7576E-02,1.3714E-01,4.218E-02,3.061E-03
4.329451E+02,6.00674E+01,6.1207E-02,4.1244E-02,8.4469E-02,1.2571E-01,3.509E-02,2.864E-03
