E [keV],f1 [e atom⁻¹],f2 [e atom⁻¹],μ/ρ [cm² g⁻¹],σ/ρ [cm² g⁻¹],μ/ρ total [cm² g⁻¹],μ/ρ_K [cm² g⁻¹],λ [nm]
2.0035635E+00,5.29608E+01,2.7169E+01,3.4597E+03,9.5441E+00,3.4693E+03,0.000E-01,6.188E-01
2.0135813E+00,5.31570E+01,2.6970E+01,3.4173E+03,9.5397E+00,3.4268E+03,0.000E-01,6.157E-01
2.0236492E+00,5.33351E+01,2.6780E+01,3.3764E+03,9.5351E+00,3.3859E+03,0.000E-01,6.127E-01
2.0337675E+00,5.35019E+01,2.6597E+01,3.3367E+03,9.5304E+00,3.3462E+03,0.000E-01,6.096E-01
2.0439363E+00,5.36573E+01,2.6417E+01,3.2976E+03,9.5255E+00,3.3071E+03,0.000E-01,6.066E-01
2.0541560E+00,5.38004E+01,2.6240E+01,3.2592E+03,9.5205E+00,3.2687E+03,0.000E-01,6.036E-01
2.0644268E+00,5.39300E+01,2.6065E+01,3.2213E+03,9.5153E+00,3.2308E+03,0.000E-01,6.006E-01
2.0747489E+00,5.40439E+01,2.5892E+01,3.1840E+03,9.5100E+00,3.1935E+03,0.000E-01,5.976E-01
2.0851227E+00,5.41380E+01,2.5721E+01,3.1473E+03,9.5046E+00,3.1568E+03,0.000E-01,5.946E-01
2.0955483E+00,5.42047E+01,2.5552E+01,3.1111E+03,9.4990E+00,3.1206E+03,0.000E-01,5.917E-01
2.1060260E+00,5.42263E+01,2.5386E+01,3.0754E+03,9.4933E+00,3.0849E+03,0.000E-01,5.887E-01
2.1165562E+00,5.41485E+01,2.5221E+01,3.0402E+03,9.4874E+00,3.0497E+03,0.000E-01,5.858E-01
2.1244052E+00,5.38523E+01,2.5100E+01,3.0145E+03,9.4829E+00,3.0240E+03,0.000E-01,5.836E-01
2.1271389E+00,5.34378E+01,2.5058E+01,3.0056E+03,9.4813E+00,3.0151E+03,0.000E-01,5.829E-01
2.1321947E+00,5.39589E+01,2.6163E+01,3.1307E+03,9.4784E+00,3.1402E+03,0.000E-01,5.815E-01
2.1377746E+00,5.43759E+01,2.6076E+01,3.1122E+03,9.4752E+00,3.1217E+03,0.000E-01,5.800E-01
2.1484635E+00,5.48132E+01,2.5912E+01,3.0772E+03,9.4689E+00,3.0866E+03,0.000E-01,5.771E-01
2.1592058E+00,5.51226E+01,2.5749E+01,3.0426E+03,9.4624E+00,3.0521E+03,0.000E-01,5.742E-01
2.1700018E+00,5.53804E+01,2.5588E+01,3.0086E+03,9.4558E+00,3.0180E+03,0.000E-01,5.714E-01
2.1808519E+00,5.56091E+01,2.5429E+01,2.9749E+03,9.4491E+00,2.9844E+03,0.000E-01,5.685E-01
2.1917561E+00,5.58188E+01,2.5271E+01,2.9417E+03,9.4422E+00,2.9512E+03,0.000E-01,5.657E-01
2.2027149E+00,5.60145E+01,2.5114E+01,2.9090E+03,9.4352E+00,2.9184E+03,0.000E-01,5.629E-01
2.2137285E+00,5.61996E+01,2.4959E+01,2.8766E+03,9.4280E+00,2.8860E+03,0.000E-01,5.601E-01
2.2247971E+00,5.63761E+01,2.4805E+01,2.8447E+03,9.4207E+00,2.8541E+03,0.000E-01,5.573E-01
2.2359211E+00,5.65451E+01,2.4653E+01,2.8132E+03,9.4133E+00,2.8226E+03,0.000E-01,5.545E-01
2.2471007E+00,5.67088E+01,2.4504E+01,2.7822E+03,9.4057E+00,2.7916E+03,0.000E-01,5.518E-01
2.2583362E+00,5.68683E+01,2.4356E+01,2.7516E+03,9.3980E+00,2.7610E+03,0.000E-01,5.490E-01
2.2696279E+00,5.70237E+01,2.4205E+01,2.7210E+03,9.3901E+00,2.7304E+03,0.000E-01,5.463E-01
2.2809760E+00,5.71737E+01,2.4053E+01,2.6904E+03,9.3821E+00,2.6998E+03,0.000E-01,5.436E-01
2.2923809E+00,5.73191E+01,2.3901E+01,2.6602E+03,9.3740E+00,2.6696E+03,0.000E-01,5.409E-01
2.3038428E+00,5.74601E+01,2.3751E+01,2.6304E+03,9.3657E+00,2.6397E+03,0.000E-01,5.382E-01
2.3153620E+00,5.75972E+01,2.3602E+01,2.6008E+03,9.3573E+00,2.6102E+03,0.000E-01,5.355E-01
2.3269388E+00,5.77308E+01,2.3454E+01,2.5717E+03,9.3488E+00,2.5810E+03,0.000E-01,5.328E-01
2.3385735E+00,5.78610E+01,2.3308E+01,2.5429E+03,9.3401E+00,2.5522E+03,0.000E-01,5.302E-01
2.3502664E+00,5.79882E+01,2.3162E+01,2.5144E+03,9.3313E+00,2.5237E+03,0.000E-01,5.275E-01
2.3620177E+00,5.81124E+01,2.3017E+01,2.4862E+03,9.3224E+00,2.4956E+03,0.000E-01,5.249E-01
2.3738278E+00,5.82340E+01,2.2873E+01,2.4584E+03,9.3133E+00,2.4677E+03,0.000E-01,5.223E-01
2.3856970E+00,5.83530E+01,2.2730E+01,2.4309E+03,9.3041E+00,2.4402E+03,0.000E-01,5.197E-01
2.3976254E+00,5.84696E+01,2.2589E+01,2.4037E+03,9.2948E+00,2.4130E+03,0.000E-01,5.171E-01
2.4096136E+00,5.85839E+01,2.2448E+01,2.3769E+03,9.2853E+00,2.3861E+03,0.000E-01,5.145E-01
2.4216616E+00,5.86960E+01,2.2308E+01,2.3503E+03,9.2757E+00,2.3596E+03,0.000E-01,5.120E-01
2.4337699E+00,5.88061E+01,2.2169E+01,2.3240E+03,9.2660E+00,2.3333E+03,0.000E-01,5.094E-01
2.4459388E+00,5.89142E+01,2.2030E+01,2.2980E+03,9.2561E+00,2.3073E+03,0.000E-01,5.069E-01
2.4581685E+00,5.90205E+01,2.1893E+01,2.2723E+03,9.2461E+00,2.2816E+03,0.000E-01,5.044E-01
2.4704593E+00,5.91251E+01,2.1757E+01,2.2469E+03,9.2360E+00,2.2562E+03,0.000E-01,5.019E-01
2.4828116E+00,5.92282E+01,2.1621E+01,2.2218E+03,9.2258E+00,2.2310E+03,0.000E-01,4.994E-01
2.4952257E+00,5.93298E+01,2.1486E+01,2.1970E+03,9.2154E+00,2.2062E+03,0.000E-01,4.969E-01
2.5077018E+00,5.94298E+01,2.1350E+01,2.1722E+03,9.2049E+00,2.1814E+03,0.000E-01,4.944E-01
2.5202403E+00,5.95276E+01,2.1214E+01,2.1476E+03,9.1942E+00,2.1568E+03,0.000E-01,4.920E-01
2.5328415E+00,5.96233E+01,2.1078E+01,2.1233E+03,9.1835E+00,2.1325E+03,0.000E-01,4.895E-01
2.5455057E+00,5.97171E+01,2.0944E+01,2.0992E+03,9.1726E+00,2.1084E+03,0.000E-01,4.871E-01
2.5582333E+00,5.98091E+01,2.0810E+01,2.0754E+03,9.1616E+00,2.0846E+03,0.000E-01,4.846E-01
2.5710244E+00,5.98993E+01,2.0677E+01,2.0519E+03,9.1505E+00,2.0611E+03,0.000E-01,4.822E-01
2.5838796E+00,5.99879E+01,2.0545E+01,2.0287E+03,9.1392E+00,2.0378E+03,0.000E-01,4.798E-01
2.5967990E+00,6.00748E+01,2.0414E+01,2.0057E+03,9.1278E+00,2.0148E+03,0.000E-01,4.775E-01
2.6097829E+00,6.01603E+01,2.0283E+01,1.9829E+03,9.1163E+00,1.9920E+03,0.000E-01,4.751E-01
2.6228319E+00,6.02443E+01,2.0153E+01,1.9604E+03,9.1047E+00,1.9695E+03,0.000E-01,4.727E-01
2.6359460E+00,6.03268E+01,2.0024E+01,1.9382E+03,9.0930E+00,1.9473E+03,0.000E-01,4.704E-01
2.6491257E+00,6.04081E+01,1.9896E+01,1.9162E+03,9.0811E+00,1.9253E+03,0.000E-01,4.680E-01
2.6623714E+00,6.04880E+01,1.9769E+01,1.8945E+03,9.0691E+00,1.9035E+03,0.000E-01,4.657E-01
2.6756832E+00,6.05667E+01,1.9642E+01,1.8730E+03,9.0570E+00,1.8820E+03,0.000E-01,4.634E-01
2.6890617E+00,6.06442E+01,1.9516E+01,1.8517E+03,9.0448E+00,1.8608E+03,0.000E-01,4.611E-01
2.7025070E+00,6.07206E+01,1.9391E+01,1.8307E+03,9.0324E+00,1.8397E+03,0.000E-01,4.588E-01
2.7160195E+00,6.09983E+01,1.9263E+01,1.8096E+03,9.0200E+00,1.8186E+03,0.000E-01,4.565E-01
2.7295996E+00,6.10715E+01,1.9136E+01,1.7887E+03,9.0074E+00,1.7977E+03,0.000E-01,4.542E-01
2.7432476E+00,6.11433E+01,1.9010E+01,1.7681E+03,8.9947E+00,1.7771E+03,0.000E-01,4.520E-01
2.7569638E+00,6.12137E+01,1.8885E+01,1.7477E+03,8.9819E+00,1.7567E+03,0.000E-01,4.497E-01
2.7707486E+00,6.12830E+01,1.8760E+01,1.7275E+03,8.9690E+00,1.7365E+03,0.000E-01,4.475E-01
2.7846024E+00,6.14922E+01,1.8636E+01,1.7075E+03,8.9559E+00,1.7164E+03,0.000E-01,4.452E-01
2.7985254E+00,6.15586E+01,1.8510E+01,1.6875E+03,8.9428E+00,1.6965E+03,0.000E-01,4.430E-01
2.8125180E+00,6.16236E+01,1.8385E+01,1.6678E+03,8.9295E+00,1.6767E+03,0.000E-01,4.408E-01
2.8265806E+00,6.16872E+01,1.8261E+01,1.6483E+03,8.9161E+00,1.6572E+03,0.000E-01,4.386E-01
2.8407135E+00,6.17495E+01,1.8138E+01,1.6291E+03,8.9026E+00,1.6380E+03,0.000E-01,4.365E-01
2.8549171E+00,6.18106E+01,1.8016E+01,1.6101E+03,8.8890E+00,1.6190E+03,0.000E-01,4.343E-01
2.8691917E+00,6.18707E+01,1.7895E+01,1.5913E+03,8.8753E+00,1.6002E+03,0.000E-01,4.321E-01
2.8835376E+00,6.19297E+01,1.7774E+01,1.5727E+03,8.8615E+00,1.5816E+03,0.000E-01,4.300E-01
2.8979553E+00,6.19878E+01,1.7655E+01,1.5544E+03,8.8476E+00,1.5632E+03,0.000E-01,4.278E-01
2.9124451E+00,6.20452E+01,1.7537E+01,1.5363E+03,8.8335E+00,1.5451E+03,0.000E-01,4.257E-01
2.9270073E+00,6.21020E+01,1.7419E+01,1.5184E+03,8.8194E+00,1.5272E+03,0.000E-01,4.236E-01
2.9416424E+00,6.21583E+01,1.7302E+01,1.5007E+03,8.8051E+00,1.5095E+03,0.000E-01,4.215E-01
2.9563506E+00,6.22144E+01,1.7187E+01,1.4833E+03,8.7908E+00,1.4921E+03,0.000E-01,4.194E-01
2.9711323E+00,6.22708E+01,1.7072E+01,1.4660E+03,8.7763E+00,1.4748E+03,0.000E-01,4.173E-01
2.9859880E+00,6.23279E+01,1.6958E+01,1.4490E+03,8.7618E+00,1.4578E+03,0.000E-01,4.152E-01
3.0009179E+00,6.23911E+01,1.6844E+01,1.4321E+03,8.7471E+00,1.4408E+03,0.000E-01,4.132E-01
3.0159225E+00,6.24781E+01,1.6713E+01,1.4139E+03,8.7323E+00,1.4226E+03,0.000E-01,4.111E-01
3.0310021E+00,6.25382E+01,1.6583E+01,1.3959E+03,8.7174E+00,1.4046E+03,0.000E-01,4.091E-01
3.0461571E+00,6.25903E+01,1.6452E+01,1.3780E+03,8.7024E+00,1.3867E+03,0.000E-01,4.070E-01
3.0613879E+00,6.26380E+01,1.6322E+01,1.3603E+03,8.6874E+00,1.3690E+03,0.000E-01,4.050E-01
3.0766949E+00,6.26828E+01,1.6194E+01,1.3429E+03,8.6722E+00,1.3516E+03,0.000E-01,4.030E-01
3.0920783E+00,6.27251E+01,1.6067E+01,1.3258E+03,8.6569E+00,1.3344E+03,0.000E-01,4.010E-01
3.1075387E+00,6.27655E+01,1.5941E+01,1.3088E+03,8.6415E+00,1.3175E+03,0.000E-01,3.990E-01
3.1230764E+00,6.28040E+01,1.5816E+01,1.2921E+03,8.6260E+00,1.3007E+03,0.000E-01,3.970E-01
3.1386918E+00,6.28409E+01,1.5693E+01,1.2756E+03,8.6105E+00,1.2843E+03,0.000E-01,3.950E-01
3.1543853E+00,6.28762E+01,1.5570E+01,1.2594E+03,8.5948E+00,1.2680E+03,0.000E-01,3.931E-01
3.1701572E+00,6.29101E+01,1.5449E+01,1.2434E+03,8.5790E+00,1.2519E+03,0.000E-01,3.911E-01
3.1860080E+00,6.29427E+01,1.5329E+01,1.2276E+03,8.5631E+00,1.2361E+03,0.000E-01,3.892E-01
3.2019380E+00,6.29740E+01,1.5210E+01,1.2120E+03,8.5472E+00,1.2205E+03,0.000E-01,3.872E-01
3.2179477E+00,6.30041E+01,1.5092E+01,1.1966E+03,8.5311E+00,1.2051E+03,0.000E-01,3.853E-01
3.2340374E+00,6.30330E+01,1.4975E+01,1.1814E+03,8.5150E+00,1.1899E+03,0.000E-01,3.834E-01
3.2502076E+00,6.30608E+01,1.4859E+01,1.1664E+03,8.4987E+00,1.1749E+03,0.000E-01,3.815E-01
3.2664587E+00,6.30876E+01,1.4744E+01,1.1516E+03,8.4824E+00,1.1601E+03,0.000E-01,3.796E-01
3.2827910E+00,6.31133E+01,1.4630E+01,1.1371E+03,8.4660E+00,1.1455E+03,0.000E-01,3.777E-01
3.2992049E+00,6.31381E+01,1.4518E+01,1.1227E+03,8.4495E+00,1.1311E+03,0.000E-01,3.758E-01
3.3157009E+00,6.31619E+01,1.4406E+01,1.1085E+03,8.4329E+00,1.1169E+03,0.000E-01,3.739E-01
3.3322794E+00,6.31848E+01,1.4295E+01,1.0945E+03,8.4162E+00,1.1029E+03,0.000E-01,3.721E-01
3.3489408E+00,6.32068E+01,1.4185E+01,1.0807E+03,8.3994E+00,1.0891E+03,0.000E-01,3.702E-01
3.3656856E+00,6.32280E+01,1.4077E+01,1.0671E+03,8.3825E+00,1.0755E+03,0.000E-01,3.684E-01
3.3825140E+00,6.32485E+01,1.3969E+01,1.0537E+03,8.3656E+00,1.0620E+03,0.000E-01,3.665E-01
3.3994265E+00,6.32681E+01,1.3862E+01,1.0404E+03,8.3486E+00,1.0488E+03,0.000E-01,3.647E-01
3.4164237E+00,6.32870E+01,1.3757E+01,1.0273E+03,8.3314E+00,1.0357E+03,0.000E-01,3.629E-01
3.4335058E+00,6.33053E+01,1.3652E+01,1.0145E+03,8.3142E+00,1.0228E+03,0.000E-01,3.611E-01
3.4506733E+00,6.33228E+01,1.3548E+01,1.0017E+03,8.2969E+00,1.0100E+03,0.000E-01,3.593E-01
3.4679267E+00,6.33398E+01,1.3445E+01,9.8917E+02,8.2796E+00,9.9745E+02,0.000E-01,3.575E-01
3.4852663E+00,6.34590E+01,1.3342E+01,9.7674E+02,8.2621E+00,9.8500E+02,0.000E-01,3.557E-01
3.5026927E+00,6.34754E+01,1.3237E+01,9.6423E+02,8.2446E+00,9.7248E+02,0.000E-01,3.540E-01
3.5202061E+00,6.34908E+01,1.3133E+01,9.5190E+02,8.2270E+00,9.6012E+02,0.000E-01,3.522E-01
3.5378072E+00,6.35051E+01,1.3030E+01,9.3973E+02,8.2093E+00,9.4794E+02,0.000E-01,3.505E-01
3.5554962E+00,6.35186E+01,1.2928E+01,9.2772E+02,8.1915E+00,9.3592E+02,0.000E-01,3.487E-01
3.5732737E+00,6.35312E+01,1.2827E+01,9.1588E+02,8.1737E+00,9.2406E+02,0.000E-01,3.470E-01
3.5911400E+00,6.35430E+01,1.2727E+01,9.0420E+02,8.1557E+00,9.1235E+02,0.000E-01,3.453E-01
3.6090957E+00,6.35540E+01,1.2627E+01,8.9267E+02,8.1377E+00,9.0081E+02,0.000E-01,3.435E-01
3.6271412E+00,6.35643E+01,1.2529E+01,8.8131E+02,8.1196E+00,8.8942E+02,0.000E-01,3.418E-01
3.6452769E+00,6.35738E+01,1.2431E+01,8.7009E+02,8.1015E+00,8.7819E+02,0.000E-01,3.401E-01
3.6635033E+00,6.35826E+01,1.2335E+01,8.5902E+02,8.0833E+00,8.6711E+02,0.000E-01,3.384E-01
3.6818208E+00,6.35908E+01,1.2239E+01,8.4811E+02,8.0650E+00,8.5617E+02,0.000E-01,3.367E-01
3.7002299E+00,6.35983E+01,1.2144E+01,8.3734E+02,8.0466E+00,8.4538E+02,0.000E-01,3.351E-01
3.7187311E+00,6.36052E+01,1.2050E+01,8.2671E+02,8.0281E+00,8.3474E+02,0.000E-01,3.334E-01
3.7373247E+00,6.36115E+01,1.1956E+01,8.1623E+02,8.0096E+00,8.2424E+02,0.000E-01,3.317E-01
3.7560114E+00,6.36172E+01,1.1864E+01,8.0589E+02,7.9910E+00,8.1388E+02,0.000E-01,3.301E-01
3.7747914E+00,6.36224E+01,1.1772E+01,7.9569E+02,7.9724E+00,8.0366E+02,0.000E-01,3.285E-01
3.7936654E+00,6.36271E+01,1.1681E+01,7.8562E+02,7.9537E+00,7.9358E+02,0.000E-01,3.268E-01
3.8126337E+00,6.36313E+01,1.1591E+01,7.7569E+02,7.9349E+00,7.8363E+02,0.000E-01,3.252E-01
3.8316969E+00,6.36349E+01,1.1502E+01,7.6589E+02,7.9160E+00,7.7381E+02,0.000E-01,3.236E-01
3.8508554E+00,6.36885E+01,1.1413E+01,7.5618E+02,7.8971E+00,7.6408E+02,0.000E-01,3.220E-01
3.8701096E+00,6.36917E+01,1.1323E+01,7.4650E+02,7.8781E+00,7.5437E+02,0.000E-01,3.204E-01
3.8894602E+00,6.36941E+01,1.1234E+01,7.3694E+02,7.8591E+00,7.4480E+02,0.000E-01,3.188E-01
3.9089075E+00,6.36959E+01,1.1146E+01,7.2751E+02,7.8399E+00,7.3535E+02,0.000E-01,3.172E-01
3.9284520E+00,6.36970E+01,1.1058E+01,7.1820E+02,7.8208E+00,7.2602E+02,0.000E-01,3.156E-01
3.9480943E+00,6.36975E+01,1.0972E+01,7.0903E+02,7.8015E+00,7.1683E+02,0.000E-01,3.140E-01
3.9678347E+00,6.36975E+01,1.0886E+01,6.9997E+02,7.7822E+00,7.0775E+02,0.000E-01,3.125E-01
3.9876739E+00,6.36969E+01,1.0800E+01,6.9104E+02,7.7628E+00,6.9880E+02,0.000E-01,3.109E-01
4.055024E+00,6.40956E+01,1.0520E+01,6.6190E+02,7.7225E+00,6.6962E+02,0.000E+00,3.058E-01
4.334821E+00,6.39832E+01,9.4779E+00,5.5785E+02,7.4573E+00,5.6531E+02,0.000E+00,2.860E-01
4.633924E+00,6.37889E+01,8.5432E+00,4.7038E+02,7.1838E+00,4.7756E+02,0.000E+00,2.676E-01
4.953664E+00,6.35420E+01,7.7110E+00,3.9716E+02,6.9038E+00,4.0406E+02,0.000E+00,2.503E-01
5.295467E+00,6.32455E+01,6.9692E+00,3.3578E+02,6.6191E+00,3.4240E+02,0.000E+00,2.341E-01
5.660855E+00,6.28946E+01,6.3070E+00,2.8426E+02,6.3315E+00,2.9059E+02,0.000E+00,2.190E-01
6.051453E+00,6.24720E+01,5.7000E+00,2.4032E+02,6.0426E+00,2.4636E+02,0.000E+00,2.049E-01
6.469004E+00,6.19213E+01,5.1362E+00,2.0257E+02,5.7540E+00,2.0832E+02,0.000E+00,1.917E-01
6.915365E+00,6.11594E+01,4.6345E+00,1.7099E+02,5.4670E+00,1.7646E+02,0.000E+00,1.793E-01
7.392525E+00,5.99548E+01,4.1893E+00,1.4459E+02,5.1832E+00,1.4977E+02,0.000E+00,1.677E-01
7.902609E+00,5.69139E+01,3.7812E+00,1.2208E+02,4.9037E+00,1.2698E+02,0.000E+00,1.569E-01
7.909678E+00,5.68216E+01,3.7760E+00,1.2180E+02,4.8999E+00,1.2670E+02,0.000E+00,1.568E-01
8.030745E+00,5.38366E+01,3.6885E+00,1.1719E+02,4.8370E+00,1.2203E+02,0.000E+00,1.544E-01
8.063029E+00,5.03421E+01,3.6658E+00,1.1600E+02,4.8205E+00,1.2082E+02,0.000E+00,1.538E-01
8.111456E+00,5.38428E+01,1.0452E+01,3.2876E+02,4.7958E+00,3.3356E+02,0.000E+00,1.529E-01
8.232522E+00,5.68834E+01,1.0119E+01,3.1360E+02,4.7349E+00,3.1833E+02,0.000E+00,1.506E-01
8.447890E+00,5.84369E+01,9.5635E+00,2.8883E+02,4.6295E+00,2.9346E+02,0.000E+00,1.468E-01
8.739444E+00,5.86150E+01,9.0214E+00,2.6337E+02,4.4925E+00,2.6786E+02,0.000E+00,1.419E-01
8.873211E+00,5.75023E+01,8.8050E+00,2.5318E+02,4.4318E+00,2.5761E+02,0.000E+00,1.397E-01
8.908882E+00,5.58405E+01,8.7477E+00,2.5052E+02,4.4158E+00,2.5494E+02,0.000E+00,1.392E-01
8.962389E+00,5.77058E+01,1.2075E+01,3.4374E+02,4.3920E+00,3.4813E+02,0.000E+00,1.383E-01
9.030794E+00,5.88604E+01,1.1899E+01,3.3617E+02,4.3618E+00,3.4053E+02,0.000E+00,1.373E-01
9.096156E+00,5.94438E+01,1.1735E+01,3.2915E+02,4.3333E+00,3.3348E+02,0.000E+00,1.363E-01
9.206316E+00,5.99990E+01,1.1465E+01,3.1774E+02,4.2859E+00,3.2203E+02,0.000E+00,1.347E-01
9.347229E+00,5.99731E+01,1.1132E+01,3.0386E+02,4.2264E+00,3.0809E+02,0.000E+00,1.326E-01
9.384806E+00,5.92505E+01,1.1049E+01,3.0040E+02,4.2108E+00,3.0461E+02,0.000E+00,1.321E-01
9.441171E+00,6.03395E+01,1.2653E+01,3.4194E+02,4.1875E+00,3.4613E+02,0.000E+00,1.313E-01
9.582084E+00,6.15929E+01,1.2348E+01,3.2880E+02,4.1301E+00,3.3293E+02,0.000E+00,1.294E-01
9.653919E+00,6.19877E+01,1.2198E+01,3.2238E+02,4.1014E+00,3.2648E+02,0.000E+00,1.284E-01
2.011215E+01,6.74038E+01,3.6352E+00,4.6116E+01,1.8539E+00,4.7970E+01,0.000E+00,6.165E-02
2.149988E+01,6.73504E+01,3.2468E+00,3.8530E+01,1.7095E+00,4.0240E+01,0.000E+00,5.767E-02
2.298338E+01,6.72834E+01,2.9024E+00,3.2220E+01,1.5744E+00,3.3794E+01,0.000E+00,5.395E-02
2.456923E+01,6.72083E+01,2.5968E+00,2.6967E+01,1.4485E+00,2.8416E+01,0.000E+00,5.046E-02
2.626450E+01,6.71306E+01,2.3254E+00,2.2590E+01,1.3314E+00,2.3921E+01,0.000E+00,4.721E-02
2.807676E+01,6.70572E+01,2.0677E+00,1.8790E+01,1.2227E+00,2.0013E+01,0.000E+00,4.416E-02
3.001405E+01,6.69602E+01,1.8352E+00,1.5600E+01,1.1221E+00,1.6722E+01,0.000E+00,4.131E-02
3.208502E+01,6.68537E+01,1.6301E+00,1.2962E+01,1.0292E+00,1.3991E+01,0.000E+00,3.864E-02
3.429889E+01,6.67401E+01,1.4491E+00,1.0780E+01,9.4351E-01,1.1724E+01,0.000E+00,3.615E-02
3.666551E+01,6.66184E+01,1.2871E+00,8.9566E+00,8.6470E-01,9.8213E+00,0.000E+00,3.381E-02
3.919543E+01,6.64839E+01,1.1426E+00,7.4375E+00,7.9234E-01,8.2298E+00,0.000E+00,3.163E-02
4.189992E+01,6.63296E+01,1.0121E+00,6.1627E+00,7.2603E-01,6.8887E+00,0.000E+00,2.959E-02
4.479101E+01,6.61395E+01,8.9477E-01,5.0968E+00,6.6538E-01,5.7622E+00,0.000E+00,2.768E-02
4.788159E+01,6.58829E+01,7.9118E-01,4.2158E+00,6.1000E-01,4.8258E+00,0.000E+00,2.589E-02
5.118542E+01,6.54662E+01,7.0001E-01,3.4893E+00,5.5952E-01,4.0488E+00,0.000E+00,2.422E-02
5.450534E+01,6.43897E+01,6.2421E-01,2.9219E+00,5.1613E-01,3.4380E+00,0.000E+00,2.275E-02
5.471721E+01,6.42184E+01,6.1983E-01,2.8902E+00,5.1357E-01,3.4038E+00,0.000E+00,2.266E-02
5.533961E+01,6.32423E+01,6.0722E-01,2.7996E+00,5.0621E-01,3.3058E+00,0.000E+00,2.240E-02
5.556208E+01,6.18682E+01,6.0281E-01,2.7681E+00,5.0362E-01,3.2717E+00,0.000E+00,2.231E-02
5.589579E+01,6.32566E+01,3.3013E+00,1.5069E+01,4.9979E-01,1.5569E+01,1.235E+01,2.218E-02
5.673005E+01,6.45109E+01,3.2271E+00,1.4514E+01,4.9046E-01,1.5004E+01,1.190E+01,2.186E-02
5.849270E+01,6.53995E+01,3.0790E+00,1.3430E+01,4.7181E-01,1.3902E+01,1.103E+01,2.120E-02
6.252870E+01,6.62164E+01,2.7650E+00,1.1282E+01,4.3391E-01,1.1716E+01,9.295E+00,1.983E-02
6.684318E+01,6.66288E+01,2.4787E+00,9.4613E+00,3.9954E-01,9.8608E+00,7.812E+00,1.855E-02
7.145536E+01,6.68827E+01,2.2211E+00,7.9308E+00,3.6843E-01,8.2992E+00,6.560E+00,1.735E-02
7.638578E+01,6.70512E+01,1.9890E+00,6.6437E+00,3.4027E-01,6.9840E+00,5.504E+00,1.623E-02
8.165640E+01,6.71685E+01,1.7786E+00,5.5572E+00,3.1482E-01,5.8720E+00,4.612E+00,1.518E-02
8.729069E+01,6.72458E+01,1.5856E+00,4.6344E+00,2.9183E-01,4.9262E+00,3.855E+00,1.420E-02
9.331374E+01,6.72943E+01,1.4137E+00,3.8653E+00,2.7106E-01,4.1364E+00,3.222E+00,1.329E-02
9.975239E+01,6.73236E+01,1.2606E+00,3.2243E+00,2.5231E-01,3.4766E+00,2.693E+00,1.243E-02
2.078156E+02,6.72390E+01,3.4557E-01,4.2427E-01,1.3284E-01,5.5711E-01,3.568E-01,5.966E-03
2.221548E+02,6.72208E+01,3.0718E-01,3.5279E-01,1.2681E-01,4.7960E-01,2.967E-01,5.581E-03
2.374835E+02,6.72031E+01,2.7307E-01,2.9337E-01,1.2124E-01,4.1461E-01,2.467E-01,5.221E-03
2.538699E+02,6.71863E+01,2.4378E-01,2.4500E-01,1.1606E-01,3.6106E-01,2.062E-01,4.884E-03
2.713869E+02,6.71709E+01,2.1790E-01,2.0485E-01,1.1123E-01,3.1608E-01,1.725E-01,4.569E-03
2.901126E+02,6.71568E+01,1.9478E-01,1.7130E-01,1.0671E-01,2.7801E-01,1.444E-01,4.274E-03
3.101304E+02,6.71436E+01,1.7413E-01,1.4325E-01,1.0246E-01,2.4571E-01,1.208E-01,3.998E-03
3.315294E+02,6.71315E+01,1.5567E-01,1.1980E-01,9.8455E-02,2.1826E-01,1.011E-01,3.740E-03
3.544049E+02,6.71203E+01,1.3919E-01,1.0020E-01,9.4657E-02,1.9486E-01,8.459E-02,3.498E-03
3.788588E+02,6.71099E+01,1.2445E-01,8.3811E-02,9.1045E-02,1.7486E-01,7.079E-02,3.273E-03
4.050001E+02,6.71004E+01,1.1128E-01,7.0106E-02,8.7599E-02,1.5771E-01,5.924E-02,3.061E-03
4.329451E+02,6.70916E+01,9.9514E-02,5.8645E-02,8.4301E-02,1.4295E-01,4.957E-02,2.864E-03
