E [keV],f1 [e atom⁻¹],f2 [e atom⁻¹],μ/ρ [cm² g⁻¹],σ/ρ [cm² g⁻¹],μ/ρ total [cm² g⁻¹],μ/ρ_K [cm² g⁻¹],λ [nm]
2.0089931E+00,2.93165E+01,1.3855E+01,3.4632E+03,5.3080E+00,3.4685E+03,0.000E-01,6.171E-01
2.0190381E+00,2.95207E+01,1.3751E+01,3.4201E+03,5.3032E+00,3.4254E+03,0.000E-01,6.141E-01
2.0291333E+00,2.97142E+01,1.3650E+01,3.3779E+03,5.2982E+00,3.3832E+03,0.000E-01,6.110E-01
2.0392790E+00,2.98985E+01,1.3549E+01,3.3363E+03,5.2932E+00,3.3416E+03,0.000E-01,6.080E-01
2.0494754E+00,3.00744E+01,1.3449E+01,3.2953E+03,5.2880E+00,3.3006E+03,0.000E-01,6.050E-01
2.0597227E+00,3.02428E+01,1.3351E+01,3.2548E+03,5.2829E+00,3.2601E+03,0.000E-01,6.019E-01
2.0700213E+00,3.04043E+01,1.3253E+01,3.2149E+03,5.2776E+00,3.2202E+03,0.000E-01,5.990E-01
2.0803714E+00,3.05596E+01,1.3156E+01,3.1755E+03,5.2722E+00,3.1808E+03,0.000E-01,5.960E-01
2.0907733E+00,3.07091E+01,1.3060E+01,3.1367E+03,5.2668E+00,3.1419E+03,0.000E-01,5.930E-01
2.1012272E+00,3.08532E+01,1.2965E+01,3.0983E+03,5.2613E+00,3.1036E+03,0.000E-01,5.901E-01
2.1117333E+00,3.09923E+01,1.2870E+01,3.0605E+03,5.2557E+00,3.0657E+03,0.000E-01,5.871E-01
2.1222920E+00,3.11269E+01,1.2777E+01,3.0231E+03,5.2501E+00,3.0284E+03,0.000E-01,5.842E-01
2.1329034E+00,3.12571E+01,1.2684E+01,2.9863E+03,5.2443E+00,2.9915E+03,0.000E-01,5.813E-01
2.1435680E+00,3.13834E+01,1.2592E+01,2.9499E+03,5.2385E+00,2.9551E+03,0.000E-01,5.784E-01
2.1542858E+00,3.15059E+01,1.2501E+01,2.9140E+03,5.2326E+00,2.9192E+03,0.000E-01,5.755E-01
2.1650572E+00,3.16249E+01,1.2411E+01,2.8786E+03,5.2267E+00,2.8838E+03,0.000E-01,5.727E-01
2.1758825E+00,3.17407E+01,1.2322E+01,2.8436E+03,5.2206E+00,2.8488E+03,0.000E-01,5.698E-01
2.1867619E+00,3.18532E+01,1.2231E+01,2.8087E+03,5.2145E+00,2.8139E+03,0.000E-01,5.670E-01
2.1976957E+00,3.19623E+01,1.2142E+01,2.7742E+03,5.2083E+00,2.7794E+03,0.000E-01,5.642E-01
2.2086842E+00,3.20683E+01,1.2053E+01,2.7402E+03,5.2021E+00,2.7454E+03,0.000E-01,5.613E-01
2.2197276E+00,3.21713E+01,1.1964E+01,2.7066E+03,5.1957E+00,2.7118E+03,0.000E-01,5.586E-01
2.2308263E+00,3.22715E+01,1.1877E+01,2.6734E+03,5.1893E+00,2.6786E+03,0.000E-01,5.558E-01
2.2419804E+00,3.23690E+01,1.1790E+01,2.6407E+03,5.1829E+00,2.6458E+03,0.000E-01,5.530E-01
2.2531903E+00,3.24640E+01,1.1703E+01,2.6082E+03,5.1763E+00,2.6133E+03,0.000E-01,5.503E-01
2.2644562E+00,3.25564E+01,1.1617E+01,2.5760E+03,5.1697E+00,2.5812E+03,0.000E-01,5.475E-01
2.2757785E+00,3.26462E+01,1.1531E+01,2.5443E+03,5.1630E+00,2.5495E+03,0.000E-01,5.448E-01
2.2871574E+00,3.27336E+01,1.1446E+01,2.5129E+03,5.1562E+00,2.5181E+03,0.000E-01,5.421E-01
2.2985932E+00,3.28188E+01,1.1361E+01,2.4820E+03,5.1494E+00,2.4871E+03,0.000E-01,5.394E-01
2.3100862E+00,3.29017E+01,1.1277E+01,2.4514E+03,5.1425E+00,2.4566E+03,0.000E-01,5.367E-01
2.3216366E+00,3.29825E+01,1.1194E+01,2.4212E+03,5.1355E+00,2.4264E+03,0.000E-01,5.340E-01
2.3332448E+00,3.30613E+01,1.1112E+01,2.3914E+03,5.1285E+00,2.3966E+03,0.000E-01,5.314E-01
2.3449110E+00,3.31382E+01,1.1030E+01,2.3620E+03,5.1214E+00,2.3671E+03,0.000E-01,5.287E-01
2.3566356E+00,3.32132E+01,1.0948E+01,2.3329E+03,5.1142E+00,2.3380E+03,0.000E-01,5.261E-01
2.3684187E+00,3.32864E+01,1.0868E+01,2.3042E+03,5.1069E+00,2.3093E+03,0.000E-01,5.235E-01
2.3802608E+00,3.33578E+01,1.0788E+01,2.2758E+03,5.0996E+00,2.2809E+03,0.000E-01,5.209E-01
2.3921621E+00,3.34275E+01,1.0708E+01,2.2478E+03,5.0922E+00,2.2529E+03,0.000E-01,5.183E-01
2.4041230E+00,3.34957E+01,1.0629E+01,2.2201E+03,5.0848E+00,2.2252E+03,0.000E-01,5.157E-01
2.4161436E+00,3.35622E+01,1.0551E+01,2.1928E+03,5.0773E+00,2.1979E+03,0.000E-01,5.131E-01
2.4282243E+00,3.36273E+01,1.0473E+01,2.1658E+03,5.0697E+00,2.1709E+03,0.000E-01,5.106E-01
2.4403654E+00,3.36909E+01,1.0396E+01,2.1391E+03,5.0620E+00,2.1442E+03,0.000E-01,5.081E-01
2.4525672E+00,3.37531E+01,1.0319E+01,2.1128E+03,5.0543E+00,2.1179E+03,0.000E-01,5.055E-01
2.4648301E+00,3.38140E+01,1.0243E+01,2.0868E+03,5.0465E+00,2.0918E+03,0.000E-01,5.030E-01
2.4771542E+00,3.38736E+01,1.0168E+01,2.0611E+03,5.0387E+00,2.0661E+03,0.000E-01,5.005E-01
2.4895400E+00,3.39320E+01,1.0093E+01,2.0357E+03,5.0307E+00,2.0407E+03,0.000E-01,4.980E-01
2.5019877E+00,3.39892E+01,1.0018E+01,2.0106E+03,5.0228E+00,2.0156E+03,0.000E-01,4.955E-01
2.5144976E+00,3.40449E+01,9.9428E+00,1.9856E+03,5.0147E+00,1.9906E+03,0.000E-01,4.931E-01
2.5270701E+00,3.40993E+01,9.8684E+00,1.9609E+03,5.0066E+00,1.9659E+03,0.000E-01,4.906E-01
2.5397055E+00,3.41524E+01,9.7945E+00,1.9366E+03,4.9984E+00,1.9416E+03,0.000E-01,4.882E-01
2.5524040E+00,3.42042E+01,9.7211E+00,1.9125E+03,4.9902E+00,1.9175E+03,0.000E-01,4.858E-01
2.5651660E+00,3.42548E+01,9.6483E+00,1.8887E+03,4.9819E+00,1.8937E+03,0.000E-01,4.833E-01
2.5779919E+00,3.43042E+01,9.5760E+00,1.8653E+03,4.9736E+00,1.8702E+03,0.000E-01,4.809E-01
2.5908818E+00,3.43525E+01,9.5043E+00,1.8421E+03,4.9651E+00,1.8470E+03,0.000E-01,4.785E-01
2.6038362E+00,3.43997E+01,9.4331E+00,1.8192E+03,4.9567E+00,1.8241E+03,0.000E-01,4.762E-01
2.6168554E+00,3.44457E+01,9.3624E+00,1.7966E+03,4.9481E+00,1.8015E+03,0.000E-01,4.738E-01
2.6299397E+00,3.44908E+01,9.2922E+00,1.7742E+03,4.9395E+00,1.7792E+03,0.000E-01,4.714E-01
2.6430894E+00,3.45348E+01,9.2225E+00,1.7522E+03,4.9309E+00,1.7571E+03,0.000E-01,4.691E-01
2.6563048E+00,3.45779E+01,9.1534E+00,1.7304E+03,4.9222E+00,1.7353E+03,0.000E-01,4.668E-01
2.6695863E+00,3.46200E+01,9.0847E+00,1.7088E+03,4.9134E+00,1.7138E+03,0.000E-01,4.644E-01
2.6829343E+00,3.46611E+01,9.0166E+00,1.6876E+03,4.9046E+00,1.6925E+03,0.000E-01,4.621E-01
2.6963489E+00,3.47014E+01,8.9490E+00,1.6666E+03,4.8957E+00,1.6715E+03,0.000E-01,4.598E-01
2.7098307E+00,3.47408E+01,8.8819E+00,1.6459E+03,4.8867E+00,1.6508E+03,0.000E-01,4.575E-01
2.7233798E+00,3.47793E+01,8.8152E+00,1.6254E+03,4.8777E+00,1.6303E+03,0.000E-01,4.553E-01
2.7369967E+00,3.48170E+01,8.7491E+00,1.6052E+03,4.8687E+00,1.6101E+03,0.000E-01,4.530E-01
2.7506817E+00,3.48539E+01,8.6835E+00,1.5852E+03,4.8595E+00,1.5901E+03,0.000E-01,4.507E-01
2.7644351E+00,3.48900E+01,8.6184E+00,1.5655E+03,4.8504E+00,1.5704E+03,0.000E-01,4.485E-01
2.7782573E+00,3.49253E+01,8.5538E+00,1.5460E+03,4.8411E+00,1.5509E+03,0.000E-01,4.463E-01
2.7921486E+00,3.49600E+01,8.4897E+00,1.5268E+03,4.8319E+00,1.5316E+03,0.000E-01,4.440E-01
2.8061093E+00,3.49939E+01,8.4260E+00,1.5078E+03,4.8225E+00,1.5127E+03,0.000E-01,4.418E-01
2.8201399E+00,3.50271E+01,8.3629E+00,1.4891E+03,4.8131E+00,1.4939E+03,0.000E-01,4.396E-01
2.8342406E+00,3.50597E+01,8.3002E+00,1.4706E+03,4.8037E+00,1.4754E+03,0.000E-01,4.375E-01
2.8484118E+00,3.50917E+01,8.2380E+00,1.4523E+03,4.7942E+00,1.4571E+03,0.000E-01,4.353E-01
2.8626539E+00,3.51230E+01,8.1763E+00,1.4342E+03,4.7846E+00,1.4390E+03,0.000E-01,4.331E-01
2.8769671E+00,3.51538E+01,8.1151E+00,1.4164E+03,4.7750E+00,1.4212E+03,0.000E-01,4.310E-01
2.8913520E+00,3.51841E+01,8.0544E+00,1.3988E+03,4.7654E+00,1.4036E+03,0.000E-01,4.288E-01
2.9058087E+00,3.52139E+01,7.9941E+00,1.3815E+03,4.7557E+00,1.3862E+03,0.000E-01,4.267E-01
2.9203378E+00,3.52433E+01,7.9343E+00,1.3643E+03,4.7459E+00,1.3690E+03,0.000E-01,4.246E-01
2.9349394E+00,3.52723E+01,7.8749E+00,1.3474E+03,4.7361E+00,1.3521E+03,0.000E-01,4.224E-01
2.9496141E+00,3.53012E+01,7.8161E+00,1.3306E+03,4.7263E+00,1.3354E+03,0.000E-01,4.203E-01
2.9643622E+00,3.53301E+01,7.7577E+00,1.3141E+03,4.7164E+00,1.3188E+03,0.000E-01,4.182E-01
2.9791840E+00,3.53594E+01,7.6997E+00,1.2978E+03,4.7064E+00,1.3025E+03,0.000E-01,4.162E-01
2.9940799E+00,3.53902E+01,7.6422E+00,1.2817E+03,4.6964E+00,1.2864E+03,0.000E-01,4.141E-01
3.0090503E+00,3.54225E+01,7.5826E+00,1.2654E+03,4.6864E+00,1.2701E+03,0.000E-01,4.120E-01
3.0240956E+00,3.54522E+01,7.5217E+00,1.2490E+03,4.6763E+00,1.2537E+03,0.000E-01,4.100E-01
3.0392161E+00,3.54800E+01,7.4613E+00,1.2328E+03,4.6661E+00,1.2375E+03,0.000E-01,4.079E-01
3.0544122E+00,3.55064E+01,7.4014E+00,1.2168E+03,4.6559E+00,1.2215E+03,0.000E-01,4.059E-01
3.0696842E+00,3.55316E+01,7.3420E+00,1.2010E+03,4.6457E+00,1.2057E+03,0.000E-01,4.039E-01
3.0850326E+00,3.55558E+01,7.2831E+00,1.1855E+03,4.6354E+00,1.1901E+03,0.000E-01,4.019E-01
3.1004578E+00,3.55790E+01,7.2247E+00,1.1701E+03,4.6251E+00,1.1747E+03,0.000E-01,3.999E-01
3.1159601E+00,3.56013E+01,7.1667E+00,1.1549E+03,4.6147E+00,1.1596E+03,0.000E-01,3.979E-01
3.1315399E+00,3.56229E+01,7.1092E+00,1.1400E+03,4.6043E+00,1.1446E+03,0.000E-01,3.959E-01
3.1471976E+00,3.56438E+01,7.0522E+00,1.1252E+03,4.5939E+00,1.1298E+03,0.000E-01,3.940E-01
3.1629336E+00,3.56640E+01,6.9957E+00,1.1106E+03,4.5834E+00,1.1152E+03,0.000E-01,3.920E-01
3.1787482E+00,3.56836E+01,6.9396E+00,1.0963E+03,4.5728E+00,1.1008E+03,0.000E-01,3.900E-01
3.1946420E+00,3.57026E+01,6.8840E+00,1.0821E+03,4.5622E+00,1.0866E+03,0.000E-01,3.881E-01
3.2106152E+00,3.57211E+01,6.8289E+00,1.0681E+03,4.5516E+00,1.0726E+03,0.000E-01,3.862E-01
3.2266683E+00,3.57390E+01,6.7742E+00,1.0542E+03,4.5409E+00,1.0588E+03,0.000E-01,3.842E-01
3.2428016E+00,3.57565E+01,6.7200E+00,1.0406E+03,4.5302E+00,1.0451E+03,0.000E-01,3.823E-01
3.2590156E+00,3.57734E+01,6.6662E+00,1.0271E+03,4.5195E+00,1.0317E+03,0.000E-01,3.804E-01
3.2753107E+00,3.57899E+01,6.6129E+00,1.0139E+03,4.5087E+00,1.0184E+03,0.000E-01,3.785E-01
3.2916873E+00,3.58060E+01,6.5600E+00,1.0007E+03,4.4979E+00,1.0052E+03,0.000E-01,3.767E-01
3.3081457E+00,3.58217E+01,6.5076E+00,9.8781E+02,4.4870E+00,9.9229E+02,0.000E-01,3.748E-01
3.3246864E+00,3.58370E+01,6.4556E+00,9.7504E+02,4.4761E+00,9.7952E+02,0.000E-01,3.729E-01
3.3413099E+00,3.58519E+01,6.4041E+00,9.6244E+02,4.4651E+00,9.6691E+02,0.000E-01,3.711E-01
3.3580164E+00,3.59671E+01,6.3518E+00,9.4984E+02,4.4542E+00,9.5429E+02,0.000E-01,3.692E-01
3.3748065E+00,3.59811E+01,6.2987E+00,9.3721E+02,4.4431E+00,9.4166E+02,0.000E-01,3.674E-01
3.3916805E+00,3.59946E+01,6.2461E+00,9.2476E+02,4.4321E+00,9.2920E+02,0.000E-01,3.656E-01
3.4086389E+00,3.60076E+01,6.1940E+00,9.1249E+02,4.4210E+00,9.1691E+02,0.000E-01,3.637E-01
3.4256821E+00,3.60200E+01,6.1424E+00,9.0038E+02,4.4099E+00,9.0479E+02,0.000E-01,3.619E-01
3.4428105E+00,3.60319E+01,6.0912E+00,8.8843E+02,4.3987E+00,8.9283E+02,0.000E-01,3.601E-01
3.4600246E+00,3.60940E+01,6.0401E+00,8.7659E+02,4.3875E+00,8.8098E+02,0.000E-01,3.583E-01
3.4773247E+00,3.61050E+01,5.9885E+00,8.6479E+02,4.3763E+00,8.6917E+02,0.000E-01,3.566E-01
3.4947113E+00,3.61154E+01,5.9375E+00,8.5315E+02,4.3650E+00,8.5752E+02,0.000E-01,3.548E-01
3.5121849E+00,3.61254E+01,5.8869E+00,8.4168E+02,4.3537E+00,8.4603E+02,0.000E-01,3.530E-01
3.5297458E+00,3.61348E+01,5.8368E+00,8.3037E+02,4.3424E+00,8.3471E+02,0.000E-01,3.513E-01
3.5473945E+00,3.61437E+01,5.7872E+00,8.1921E+02,4.3310E+00,8.2354E+02,0.000E-01,3.495E-01
3.5651315E+00,3.61523E+01,5.7380E+00,8.0821E+02,4.3196E+00,8.1253E+02,0.000E-01,3.478E-01
3.5829572E+00,3.61603E+01,5.6893E+00,7.9736E+02,4.3082E+00,8.0167E+02,0.000E-01,3.460E-01
3.6008719E+00,3.61680E+01,5.6411E+00,7.8666E+02,4.2967E+00,7.9096E+02,0.000E-01,3.443E-01
3.6188763E+00,3.61753E+01,5.5932E+00,7.7611E+02,4.2852E+00,7.8040E+02,0.000E-01,3.426E-01
3.6369707E+00,3.61822E+01,5.5459E+00,7.6571E+02,4.2737E+00,7.6998E+02,0.000E-01,3.409E-01
3.6551555E+00,3.61888E+01,5.4989E+00,7.5545E+02,4.2622E+00,7.5972E+02,0.000E-01,3.392E-01
3.6734313E+00,3.61950E+01,5.4524E+00,7.4534E+02,4.2506E+00,7.4959E+02,0.000E-01,3.375E-01
3.6917985E+00,3.62010E+01,5.4063E+00,7.3536E+02,4.2390E+00,7.3960E+02,0.000E-01,3.358E-01
3.7102575E+00,3.62066E+01,5.3607E+00,7.2552E+02,4.2273E+00,7.2975E+02,0.000E-01,3.342E-01
3.7288088E+00,3.62119E+01,5.3155E+00,7.1582E+02,4.2157E+00,7.2004E+02,0.000E-01,3.325E-01
3.7474528E+00,3.62169E+01,5.2706E+00,7.0626E+02,4.2040E+00,7.1046E+02,0.000E-01,3.308E-01
3.7661901E+00,3.62216E+01,5.2262E+00,6.9682E+02,4.1923E+00,7.0102E+02,0.000E-01,3.292E-01
3.7850210E+00,3.62261E+01,5.1823E+00,6.8752E+02,4.1805E+00,6.9170E+02,0.000E-01,3.276E-01
3.8039461E+00,3.62304E+01,5.1387E+00,6.7835E+02,4.1688E+00,6.8251E+02,0.000E-01,3.259E-01
3.8229659E+00,3.62344E+01,5.0955E+00,6.6930E+02,4.1570E+00,6.7345E+02,0.000E-01,3.243E-01
3.8420807E+00,3.62807E+01,5.0527E+00,6.6037E+02,4.1451E+00,6.6452E+02,0.000E-01,3.227E-01
3.8612911E+00,3.62845E+01,5.0089E+00,6.5140E+02,4.1333E+00,6.5553E+02,0.000E-01,3.211E-01
3.8805975E+00,3.62880E+01,4.9656E+00,6.4255E+02,4.1214E+00,6.4667E+02,0.000E-01,3.195E-01
3.9000005E+00,3.62911E+01,4.9226E+00,6.3382E+02,4.1095E+00,6.3793E+02,0.000E-01,3.179E-01
3.9195005E+00,3.62939E+01,4.8800E+00,6.2521E+02,4.0976E+00,6.2931E+02,0.000E-01,3.163E-01
3.9390980E+00,3.62964E+01,4.8379E+00,6.1673E+02,4.0857E+00,6.2081E+02,0.000E-01,3.148E-01
3.9587935E+00,3.62986E+01,4.7961E+00,6.0836E+02,4.0737E+00,6.1243E+02,0.000E-01,3.132E-01
3.9785875E+00,3.63005E+01,4.7547E+00,6.0011E+02,4.0617E+00,6.0417E+02,0.000E-01,3.116E-01
3.9984804E+00,3.63022E+01,4.7137E+00,5.9197E+02,4.0497E+00,5.9602E+02,0.000E-01,3.101E-01
4.0184728E+00,3.63036E+01,4.6730E+00,5.8394E+02,4.0377E+00,5.8798E+02,0.000E-01,3.085E-01
4.0385652E+00,3.63047E+01,4.6324E+00,5.7599E+02,4.0257E+00,5.8001E+02,0.000E-01,3.070E-01
4.0587580E+00,3.63056E+01,4.5922E+00,5.6815E+02,4.0136E+00,5.7216E+02,0.000E-01,3.055E-01
4.0790518E+00,3.63063E+01,4.5524E+00,5.6042E+02,4.0015E+00,5.6442E+02,0.000E-01,3.040E-01
4.0994471E+00,3.63067E+01,4.5129E+00,5.5280E+02,3.9894E+00,5.5679E+02,0.000E-01,3.024E-01
4.1199443E+00,3.63069E+01,4.4738E+00,5.4528E+02,3.9773E+00,5.4926E+02,0.000E-01,3.009E-01
4.1405440E+00,3.63068E+01,4.4351E+00,5.3787E+02,3.9652E+00,5.4183E+02,0.000E-01,2.994E-01
4.1612467E+00,3.63066E+01,4.3967E+00,5.3056E+02,3.9530E+00,5.3451E+02,0.000E-01,2.979E-01
4.1820530E+00,3.63062E+01,4.3586E+00,5.2336E+02,3.9408E+00,5.2730E+02,0.000E-01,2.965E-01
4.2029632E+00,3.63055E+01,4.3208E+00,5.1623E+02,3.9286E+00,5.2016E+02,0.000E-01,2.950E-01
4.2239781E+00,3.63047E+01,4.2833E+00,5.0921E+02,3.9164E+00,5.1312E+02,0.000E-01,2.935E-01
4.2450980E+00,3.63037E+01,4.2462E+00,5.0228E+02,3.9042E+00,5.0619E+02,0.000E-01,2.921E-01
4.2663234E+00,3.63024E+01,4.2094E+00,4.9545E+02,3.8920E+00,4.9934E+02,0.000E-01,2.906E-01
4.2876551E+00,3.63010E+01,4.1730E+00,4.8872E+02,3.8797E+00,4.9260E+02,0.000E-01,2.892E-01
4.3090933E+00,3.62995E+01,4.1368E+00,4.8208E+02,3.8674E+00,4.8595E+02,0.000E-01,2.877E-01
4.3306388E+00,3.62977E+01,4.1011E+00,4.7553E+02,3.8552E+00,4.7939E+02,0.000E-01,2.863E-01
4.3522920E+00,3.62958E+01,4.0656E+00,4.6907E+02,3.8429E+00,4.7292E+02,0.000E-01,2.849E-01
4.3740535E+00,3.62938E+01,4.0305E+00,4.6271E+02,3.8306E+00,4.6654E+02,0.000E-01,2.835E-01
4.3959237E+00,3.62916E+01,3.9957E+00,4.5643E+02,3.8182E+00,4.6025E+02,0.000E-01,2.820E-01
4.4179033E+00,3.62892E+01,3.9612E+00,4.5024E+02,3.8059E+00,4.5404E+02,0.000E-01,2.806E-01
4.4399929E+00,3.62867E+01,3.9270E+00,4.4413E+02,3.7935E+00,4.4793E+02,0.000E-01,2.792E-01
4.4621928E+00,3.62841E+01,3.8931E+00,4.3811E+02,3.7812E+00,4.4190E+02,0.000E-01,2.779E-01
4.4845038E+00,3.62813E+01,3.8596E+00,4.3218E+02,3.7688E+00,4.3595E+02,0.000E-01,2.765E-01
4.5069263E+00,3.62784E+01,3.8264E+00,4.2632E+02,3.7564E+00,4.3008E+02,0.000E-01,2.751E-01
4.5294609E+00,3.62753E+01,3.7934E+00,4.2055E+02,3.7440E+00,4.2430E+02,0.000E-01,2.737E-01
4.5521082E+00,3.62722E+01,3.7608E+00,4.1486E+02,3.7316E+00,4.1859E+02,0.000E-01,2.724E-01
4.5748688E+00,3.62689E+01,3.7285E+00,4.0925E+02,3.7192E+00,4.1297E+02,0.000E-01,2.710E-01
4.5977431E+00,3.62655E+01,3.6964E+00,4.0371E+02,3.7068E+00,4.0742E+02,0.000E-01,2.697E-01
4.6207318E+00,3.62619E+01,3.6647E+00,3.9825E+02,3.6944E+00,4.0195E+02,0.000E-01,2.683E-01
4.6438355E+00,3.62583E+01,3.6332E+00,3.9287E+02,3.6819E+00,3.9655E+02,0.000E-01,2.670E-01
4.6670547E+00,3.62546E+01,3.6021E+00,3.8756E+02,3.6695E+00,3.9123E+02,0.000E-01,2.657E-01
4.6903900E+00,3.62507E+01,3.5712E+00,3.8233E+02,3.6571E+00,3.8599E+02,0.000E-01,2.643E-01
4.7138419E+00,3.62468E+01,3.5406E+00,3.7717E+02,3.6446E+00,3.8081E+02,0.000E-01,2.630E-01
4.7374111E+00,3.62428E+01,3.5103E+00,3.7208E+02,3.6321E+00,3.7571E+02,0.000E-01,2.617E-01
4.7610982E+00,3.62386E+01,3.4802E+00,3.6706E+02,3.6197E+00,3.7068E+02,0.000E-01,2.604E-01
4.7849037E+00,3.62344E+01,3.4505E+00,3.6211E+02,3.6072E+00,3.6572E+02,0.000E-01,2.591E-01
4.8088282E+00,3.62301E+01,3.4210E+00,3.5723E+02,3.5947E+00,3.6082E+02,0.000E-01,2.578E-01
4.8328723E+00,3.62257E+01,3.3917E+00,3.5241E+02,3.5822E+00,3.5600E+02,0.000E-01,2.565E-01
4.8570367E+00,3.62212E+01,3.3628E+00,3.4767E+02,3.5697E+00,3.5124E+02,0.000E-01,2.553E-01
4.8813219E+00,3.62166E+01,3.3341E+00,3.4298E+02,3.5572E+00,3.4654E+02,0.000E-01,2.540E-01
4.9057285E+00,3.62120E+01,3.3057E+00,3.3837E+02,3.5447E+00,3.4191E+02,0.000E-01,2.527E-01
4.9302571E+00,3.62072E+01,3.2775E+00,3.3381E+02,3.5322E+00,3.3735E+02,0.000E-01,2.515E-01
4.9549084E+00,3.62024E+01,3.2496E+00,3.2932E+02,3.5197E+00,3.3284E+02,0.000E-01,2.502E-01
4.9796829E+00,3.61976E+01,3.2219E+00,3.2490E+02,3.5072E+00,3.2840E+02,0.000E-01,2.490E-01
5.0045814E+00,3.61926E+01,3.1945E+00,3.2053E+02,3.4947E+00,3.2402E+02,0.000E-01,2.477E-01
5.0296043E+00,3.61876E+01,3.1673E+00,3.1622E+02,3.4822E+00,3.1971E+02,0.000E-01,2.465E-01
5.0547523E+00,3.61825E+01,3.1404E+00,3.1198E+02,3.4697E+00,3.1545E+02,0.000E-01,2.453E-01
5.0800260E+00,3.61774E+01,3.1137E+00,3.0779E+02,3.4571E+00,3.1124E+02,0.000E-01,2.441E-01
5.1054262E+00,3.61722E+01,3.0873E+00,3.0366E+02,3.4446E+00,3.0710E+02,0.000E-01,2.428E-01
5.1309533E+00,3.61669E+01,3.0611E+00,2.9958E+02,3.4321E+00,3.0301E+02,0.000E-01,2.416E-01
5.1566081E+00,3.61616E+01,3.0352E+00,2.9556E+02,3.4196E+00,2.9898E+02,0.000E-01,2.404E-01
5.1823911E+00,3.61562E+01,3.0094E+00,2.9160E+02,3.4071E+00,2.9501E+02,0.000E-01,2.392E-01
5.2083031E+00,3.61508E+01,2.9840E+00,2.8769E+02,3.3946E+00,2.9109E+02,0.000E-01,2.381E-01
5.2343446E+00,3.61453E+01,2.9587E+00,2.8384E+02,3.3820E+00,2.8722E+02,0.000E-01,2.369E-01
5.2605163E+00,3.61398E+01,2.9337E+00,2.8004E+02,3.3695E+00,2.8341E+02,0.000E-01,2.357E-01
5.2868189E+00,3.61342E+01,2.9089E+00,2.7629E+02,3.3570E+00,2.7965E+02,0.000E-01,2.345E-01
5.3132530E+00,3.61285E+01,2.8843E+00,2.7259E+02,3.3445E+00,2.7594E+02,0.000E-01,2.333E-01
5.3398192E+00,3.61228E+01,2.8600E+00,2.6895E+02,3.3320E+00,2.7228E+02,0.000E-01,2.322E-01
5.3665183E+00,3.61171E+01,2.8358E+00,2.6535E+02,3.3195E+00,2.6867E+02,0.000E-01,2.310E-01
5.3933509E+00,3.61113E+01,2.8119E+00,2.6180E+02,3.3070E+00,2.6511E+02,0.000E-01,2.299E-01
5.4203177E+00,3.61055E+01,2.7882E+00,2.5830E+02,3.2945E+00,2.6160E+02,0.000E-01,2.287E-01
5.4474193E+00,3.60997E+01,2.7646E+00,2.5484E+02,3.2820E+00,2.5813E+02,0.000E-01,2.276E-01
5.4746564E+00,3.60938E+01,2.7412E+00,2.5143E+02,3.2695E+00,2.5470E+02,0.000E-01,2.265E-01
5.5020297E+00,3.60878E+01,2.7181E+00,2.4807E+02,3.2570E+00,2.5132E+02,0.000E-01,2.253E-01
5.5295398E+00,3.60819E+01,2.6951E+00,2.4475E+02,3.2446E+00,2.4799E+02,0.000E-01,2.242E-01
5.5571875E+00,3.60758E+01,2.6723E+00,2.4148E+02,3.2321E+00,2.4471E+02,0.000E-01,2.231E-01
5.5849734E+00,3.60698E+01,2.6498E+00,2.3825E+02,3.2196E+00,2.4147E+02,0.000E-01,2.220E-01
5.6128983E+00,3.60637E+01,2.6275E+00,2.3506E+02,3.2072E+00,2.3827E+02,0.000E-01,2.209E-01
5.6409628E+00,3.60575E+01,2.6053E+00,2.3192E+02,3.1947E+00,2.3512E+02,0.000E-01,2.198E-01
5.6691676E+00,3.60514E+01,2.5834E+00,2.2883E+02,3.1823E+00,2.3201E+02,0.000E-01,2.187E-01
5.6975135E+00,3.60452E+01,2.5616E+00,2.2577E+02,3.1698E+00,2.2894E+02,0.000E-01,2.176E-01
5.7260010E+00,3.60389E+01,2.5401E+00,2.2276E+02,3.1574E+00,2.2592E+02,0.000E-01,2.165E-01
5.7546310E+00,3.60327E+01,2.5187E+00,2.1979E+02,3.1450E+00,2.2293E+02,0.000E-01,2.155E-01
5.7834042E+00,3.60264E+01,2.4976E+00,2.1686E+02,3.1326E+00,2.1999E+02,0.000E-01,2.144E-01
5.8123212E+00,3.60201E+01,2.4766E+00,2.1396E+02,3.1202E+00,2.1709E+02,0.000E-01,2.133E-01
5.8413828E+00,3.60137E+01,2.4558E+00,2.1111E+02,3.1078E+00,2.1422E+02,0.000E-01,2.123E-01
5.8705897E+00,3.60073E+01,2.4352E+00,2.0830E+02,3.0954E+00,2.1140E+02,0.000E-01,2.112E-01
5.8999427E+00,3.60009E+01,2.4148E+00,2.0553E+02,3.0830E+00,2.0861E+02,0.000E-01,2.101E-01
5.9294424E+00,3.59945E+01,2.3946E+00,2.0279E+02,3.0706E+00,2.0586E+02,0.000E-01,2.091E-01
5.9590896E+00,3.59880E+01,2.3745E+00,2.0009E+02,3.0583E+00,2.0315E+02,0.000E-01,2.081E-01
5.9888850E+00,3.59816E+01,2.3547E+00,1.9743E+02,3.0459E+00,2.0048E+02,0.000E-01,2.070E-01
6.0188295E+00,3.59751E+01,2.3350E+00,1.9481E+02,3.0336E+00,1.9784E+02,0.000E-01,2.060E-01
